0.000000,0.435059,0.432860,0.425353,0.424407,0.455499
1.000000,0.440925,0.435217,0.426858,0.425674,0.455386
2.000000,0.447219,0.438003,0.428601,0.426941,0.457981
3.000000,0.453559,0.440869,0.430626,0.428178,0.458094
4.000000,0.457642,0.443666,0.432955,0.429453,0.461252
5.000000,0.461410,0.448235,0.435917,0.431183,0.474337
6.000000,0.464817,0.452871,0.438799,0.432822,0.472420
7.000000,0.467614,0.457417,0.441568,0.434454,0.471968
8.000000,0.470412,0.461985,0.444535,0.435894,0.472081
9.000000,0.472217,0.464929,0.447095,0.437402,0.470276
10.000000,0.470953,0.466182,0.449521,0.438962,0.468020
11.000000,0.470525,0.467671,0.451444,0.440462,0.470276
12.000000,0.470525,0.469069,0.453536,0.442091,0.471968
13.000000,0.470412,0.470412,0.455640,0.443888,0.471517
14.000000,0.469397,0.470807,0.457236,0.445572,0.465200
15.000000,0.469622,0.470288,0.459261,0.447374,0.469148
16.000000,0.470231,0.470378,0.461624,0.449325,0.473322
17.000000,0.470863,0.470694,0.464055,0.451277,0.475127
18.000000,0.472623,0.471517,0.466751,0.453529,0.480316
19.000000,0.476864,0.473130,0.469030,0.455774,0.486407
20.000000,0.480406,0.475014,0.470598,0.458018,0.486858
21.000000,0.486294,0.478263,0.472967,0.460384,0.502764
22.000000,0.492138,0.481500,0.475285,0.462858,0.504343
23.000000,0.498364,0.485494,0.477953,0.465591,0.511450
24.000000,0.504884,0.490874,0.480840,0.468449,0.519007
25.000000,0.512081,0.496244,0.483266,0.471589,0.522843
26.000000,0.516887,0.501591,0.485984,0.474946,0.526791
27.000000,0.522121,0.507129,0.488911,0.478413,0.530513
28.000000,0.527016,0.512690,0.492104,0.482064,0.535928
29.000000,0.531077,0.517981,0.495556,0.485347,0.539312
30.000000,0.533672,0.522876,0.498945,0.488024,0.535815
31.000000,0.534958,0.525922,0.502092,0.490619,0.533221
32.000000,0.535003,0.528562,0.505031,0.493044,0.530739
33.000000,0.531574,0.529295,0.507394,0.495067,0.518782
34.000000,0.526881,0.528979,0.509927,0.496887,0.515849
35.000000,0.525031,0.529351,0.512798,0.498628,0.526565
36.000000,0.521241,0.528099,0.514845,0.500023,0.514270
37.000000,0.517045,0.526024,0.516576,0.501282,0.509757
38.000000,0.516706,0.524140,0.518415,0.502782,0.517090
39.000000,0.517518,0.522200,0.520090,0.504437,0.519910
40.000000,0.519707,0.522369,0.522623,0.506753,0.537507
41.000000,0.524016,0.522628,0.524275,0.508938,0.535815
42.000000,0.529972,0.523508,0.526035,0.511190,0.539538
43.000000,0.533311,0.525008,0.527152,0.513266,0.533785
44.000000,0.537620,0.527569,0.528274,0.515807,0.541455
45.000000,0.538319,0.529013,0.529182,0.518203,0.541004
46.000000,0.539605,0.531810,0.529955,0.520500,0.542245
47.000000,0.540034,0.535003,0.530513,0.522719,0.541681
48.000000,0.542380,0.537845,0.530993,0.524892,0.545516
49.000000,0.543666,0.540643,0.531421,0.526941,0.547885
50.000000,0.545606,0.541963,0.532166,0.529069,0.550705
51.000000,0.549961,0.544783,0.533706,0.531111,0.564016
52.000000,0.553864,0.546949,0.535228,0.533006,0.561196
53.000000,0.557315,0.549848,0.537428,0.534717,0.562775
54.000000,0.560767,0.552217,0.539893,0.536255,0.565144
55.000000,0.564986,0.555296,0.542155,0.537887,0.571799
56.000000,0.568032,0.558996,0.545403,0.539635,0.579244
57.000000,0.571686,0.562775,0.548889,0.541267,0.579470
58.000000,0.575251,0.566283,0.552064,0.542756,0.580598
59.000000,0.578906,0.569836,0.555240,0.544226,0.583418
60.000000,0.580214,0.572600,0.557281,0.545644,0.578342
61.000000,0.579853,0.573942,0.559363,0.547118,0.577439
62.000000,0.576988,0.574337,0.560643,0.548265,0.565144
63.000000,0.574890,0.575071,0.562459,0.549976,0.570107
64.000000,0.570446,0.574676,0.563446,0.551487,0.561196
65.000000,0.567242,0.573728,0.564512,0.552679,0.562324
66.000000,0.564151,0.572002,0.565499,0.554270,0.561985
67.000000,0.570694,0.573841,0.568308,0.557206,0.597857
68.000000,0.578590,0.576740,0.571512,0.560290,0.609588
69.000000,0.585742,0.578094,0.573965,0.562858,0.596954
70.000000,0.586915,0.577078,0.574839,0.563880,0.568190
71.000000,0.590028,0.577090,0.575516,0.565272,0.577552
72.000000,0.584569,0.577631,0.575984,0.566306,0.570558
73.000000,0.576853,0.577721,0.576396,0.567547,0.571010
74.000000,0.573717,0.579729,0.577202,0.568874,0.581275
75.000000,0.577733,0.582324,0.578026,0.570449,0.588268
76.000000,0.581139,0.585584,0.578793,0.572194,0.594585
77.000000,0.586937,0.585753,0.579797,0.574123,0.599549
78.000000,0.590931,0.583892,0.580316,0.575638,0.590976
79.000000,0.591450,0.582583,0.580338,0.576838,0.583869
80.000000,0.590908,0.584320,0.580699,0.578000,0.585561
81.000000,0.588968,0.585054,0.581072,0.578695,0.584884
82.000000,0.589216,0.588077,0.582854,0.580015,0.600790
83.000000,0.593119,0.592025,0.584873,0.581606,0.610491
84.000000,0.600541,0.595995,0.587862,0.583467,0.620981
85.000000,0.606949,0.598928,0.590626,0.584993,0.617597
86.000000,0.613333,0.601151,0.593367,0.586246,0.616808
87.000000,0.616898,0.603057,0.594405,0.587550,0.618613
88.000000,0.620914,0.607016,0.595454,0.589216,0.630570
89.000000,0.622177,0.611359,0.596971,0.590679,0.627298
90.000000,0.622380,0.614664,0.599492,0.592021,0.618613
91.000000,0.623463,0.618398,0.601726,0.593514,0.622222
92.000000,0.626531,0.621715,0.604896,0.595807,0.633954
93.000000,0.625967,0.623440,0.607733,0.597729,0.627750
94.000000,0.627118,0.624647,0.610321,0.600124,0.633051
95.000000,0.632465,0.627422,0.613175,0.602892,0.645347
96.000000,0.636932,0.630197,0.615674,0.605644,0.644557
97.000000,0.635713,0.631122,0.617090,0.606644,0.627862
98.000000,0.634721,0.630344,0.618680,0.607084,0.622786
99.000000,0.631066,0.629092,0.620226,0.607678,0.614777
100.000000,0.624501,0.628483,0.621574,0.609156,0.612521
101.000000,0.616176,0.626554,0.622476,0.610002,0.602933
102.000000,0.610649,0.623181,0.622448,0.610991,0.600226
103.000000,0.604129,0.619425,0.621433,0.611630,0.590186
104.000000,0.597609,0.614337,0.619492,0.611660,0.582177
105.000000,0.590344,0.607422,0.617422,0.611258,0.576199
106.000000,0.585381,0.600778,0.615488,0.610709,0.578116
107.000000,0.582335,0.596492,0.613807,0.610224,0.584997
108.000000,0.581906,0.593017,0.611681,0.610126,0.588043
109.000000,0.584140,0.590874,0.609983,0.610442,0.593345
110.000000,0.586779,0.588562,0.608522,0.610570,0.589397
111.000000,0.588314,0.586847,0.606701,0.610600,0.585787
112.000000,0.591585,0.586960,0.605071,0.610619,0.601354
113.000000,0.595488,0.588697,0.604061,0.610521,0.607558
114.000000,0.600812,0.592476,0.603407,0.610487,0.619966
115.000000,0.608596,0.597688,0.602555,0.610844,0.628314
116.000000,0.614755,0.601534,0.601156,0.610837,0.616582
117.000000,0.612927,0.602256,0.599374,0.609957,0.592217
118.000000,0.609836,0.602662,0.597840,0.608675,0.592104
119.000000,0.601376,0.601094,0.595984,0.607020,0.577665
120.000000,0.593029,0.600812,0.594687,0.605952,0.586576
121.000000,0.587637,0.601196,0.594021,0.604866,0.589622
122.000000,0.589397,0.601162,0.594061,0.603768,0.601015
123.000000,0.592487,0.601162,0.594929,0.603095,0.607558
124.000000,0.601060,0.601218,0.596847,0.602677,0.620530
125.000000,0.610355,0.601692,0.599690,0.602267,0.633051
126.000000,0.620282,0.603959,0.602747,0.602091,0.639255
127.000000,0.629825,0.609611,0.605933,0.602786,0.648731
128.000000,0.640541,0.616514,0.609588,0.604065,0.661139
129.000000,0.648618,0.624839,0.612967,0.605603,0.660914
130.000000,0.650558,0.630457,0.615635,0.606610,0.642752
131.000000,0.649114,0.634698,0.617947,0.607580,0.632036
132.000000,0.646340,0.638082,0.619622,0.608735,0.634856
133.000000,0.641579,0.641060,0.621111,0.610306,0.637338
134.000000,0.636255,0.642437,0.621827,0.612044,0.634292
135.000000,0.633390,0.641974,0.621833,0.613785,0.628426
136.000000,0.632307,0.640711,0.622335,0.615401,0.626622
137.000000,0.632059,0.639199,0.624405,0.617022,0.633615
138.000000,0.631089,0.636334,0.626424,0.618503,0.632487
139.000000,0.631472,0.633864,0.629351,0.619932,0.636210
140.000000,0.631765,0.632578,0.631517,0.621282,0.629893
141.000000,0.632781,0.632544,0.633621,0.622813,0.631698
142.000000,0.632713,0.632386,0.635234,0.623877,0.633277
143.000000,0.632600,0.631844,0.636452,0.624689,0.631923
144.000000,0.633029,0.632250,0.637343,0.625302,0.638353
145.000000,0.634382,0.633074,0.637524,0.625580,0.636661
146.000000,0.637473,0.635127,0.637919,0.626599,0.647152
147.000000,0.639910,0.636311,0.637755,0.628374,0.645460
148.000000,0.642391,0.637496,0.636915,0.630115,0.644332
149.000000,0.641895,0.637462,0.635663,0.632055,0.635871
150.000000,0.642211,0.638297,0.635437,0.633777,0.638240
151.000000,0.639030,0.638252,0.635398,0.635165,0.631246
152.000000,0.636684,0.638297,0.635341,0.636255,0.633728
153.000000,0.633074,0.637733,0.634788,0.636879,0.626283
154.000000,0.629667,0.635781,0.634016,0.636823,0.618838
155.000000,0.624772,0.633491,0.633283,0.636180,0.613762
156.000000,0.618906,0.628968,0.632047,0.634935,0.601918
157.000000,0.612183,0.624433,0.630372,0.633315,0.600113
158.000000,0.605437,0.619255,0.628376,0.631028,0.592555
159.000000,0.601805,0.615736,0.626599,0.629020,0.600677
160.000000,0.598962,0.611867,0.625082,0.627580,0.599549
161.000000,0.600496,0.609701,0.623976,0.626832,0.609588
162.000000,0.602482,0.607332,0.622814,0.626005,0.610039
163.000000,0.607896,0.606667,0.622200,0.625415,0.619628
164.000000,0.610197,0.606001,0.620891,0.624678,0.612183
165.000000,0.611777,0.605369,0.619430,0.623978,0.607445
166.000000,0.611010,0.605753,0.617360,0.623283,0.605753
167.000000,0.608438,0.605460,0.614946,0.622068,0.597180
168.000000,0.604287,0.606091,0.612673,0.620948,0.598872
169.000000,0.601737,0.605967,0.610852,0.619722,0.599436
170.000000,0.599932,0.605854,0.608861,0.618673,0.598421
171.000000,0.597676,0.604343,0.607022,0.617432,0.594473
172.000000,0.599684,0.604061,0.605697,0.616563,0.607219
173.000000,0.602279,0.603283,0.604975,0.615894,0.611844
174.000000,0.603993,0.602865,0.604433,0.614882,0.608009
175.000000,0.605595,0.602764,0.604067,0.613875,0.606430
176.000000,0.609949,0.603813,0.604783,0.612845,0.616244
177.000000,0.611280,0.605482,0.605471,0.611792,0.613875
178.000000,0.612025,0.607152,0.606622,0.610833,0.615567
179.000000,0.613153,0.608573,0.607270,0.610092,0.613649
180.000000,0.619267,0.612431,0.609143,0.610051,0.636999
181.000000,0.624433,0.617191,0.610767,0.610412,0.642076
182.000000,0.628268,0.619774,0.611918,0.610389,0.633051
183.000000,0.634428,0.623226,0.613254,0.611058,0.646362
184.000000,0.641309,0.627231,0.615048,0.612032,0.648054
185.000000,0.643813,0.631540,0.617152,0.613224,0.649521
186.000000,0.644129,0.634281,0.619047,0.614616,0.643655
187.000000,0.646159,0.637214,0.621348,0.616052,0.643204
188.000000,0.647874,0.641151,0.624151,0.618131,0.654935
189.000000,0.648844,0.645076,0.626825,0.619872,0.652905
190.000000,0.647174,0.645494,0.628962,0.621260,0.641173
191.000000,0.647603,0.645866,0.631528,0.622467,0.645798
192.000000,0.646317,0.646238,0.633006,0.623358,0.636774
193.000000,0.641196,0.644535,0.633880,0.623681,0.629329
194.000000,0.635826,0.642335,0.634783,0.624144,0.626058
195.000000,0.636593,0.641884,0.636712,0.625396,0.645008
196.000000,0.638037,0.642820,0.638550,0.626971,0.653017
197.000000,0.641218,0.643768,0.640491,0.628821,0.652679
198.000000,0.645212,0.643204,0.642177,0.630502,0.649295
199.000000,0.651777,0.643801,0.644439,0.632484,0.658883
200.000000,0.656605,0.646599,0.646046,0.634841,0.669148
201.000000,0.659786,0.648911,0.647389,0.637323,0.668923
202.000000,0.665403,0.653311,0.649774,0.639774,0.680767
203.000000,0.674631,0.659921,0.652228,0.642561,0.695431
204.000000,0.680474,0.666125,0.654230,0.645230,0.688099
205.000000,0.685234,0.670919,0.656402,0.648114,0.692950
206.000000,0.690333,0.675059,0.658940,0.650720,0.694416
207.000000,0.691957,0.678680,0.661224,0.653221,0.688889
208.000000,0.691483,0.683057,0.663130,0.655804,0.693063
209.000000,0.692025,0.686249,0.665025,0.658376,0.690807
210.000000,0.689679,0.687456,0.667028,0.659850,0.681218
211.000000,0.685685,0.688009,0.668460,0.660929,0.674450
212.000000,0.684083,0.688020,0.670666,0.662523,0.680880
213.000000,0.681444,0.686464,0.673192,0.663640,0.679865
214.000000,0.679391,0.685708,0.675917,0.664723,0.680541
215.000000,0.676300,0.682989,0.676954,0.665264,0.665764
216.000000,0.673818,0.679752,0.677406,0.665877,0.662042
217.000000,0.669848,0.676966,0.677823,0.666471,0.661027
218.000000,0.670998,0.676221,0.679639,0.667494,0.685618
219.000000,0.671991,0.675691,0.680970,0.668581,0.685505
220.000000,0.677270,0.676785,0.682121,0.670280,0.692160
221.000000,0.682798,0.678308,0.683158,0.671743,0.689679
222.000000,0.687851,0.678849,0.683435,0.673393,0.686294
223.000000,0.686768,0.678883,0.682673,0.675089,0.680203
224.000000,0.685076,0.678534,0.682121,0.676789,0.677045
225.000000,0.681918,0.679594,0.681292,0.677834,0.676368
226.000000,0.681038,0.681918,0.680835,0.678910,0.685279
227.000000,0.681782,0.684817,0.680891,0.680154,0.690017
228.000000,0.685302,0.686035,0.681128,0.681771,0.697800
229.000000,0.688235,0.686655,0.681173,0.682865,0.691709
230.000000,0.691438,0.686678,0.681732,0.683640,0.692386
231.000000,0.692453,0.686746,0.682527,0.684354,0.690355
232.000000,0.691303,0.686543,0.682696,0.684471,0.684264
233.000000,0.686001,0.685651,0.682267,0.683666,0.671292
234.000000,0.681512,0.684873,0.681703,0.683038,0.669261
235.000000,0.679774,0.685606,0.682600,0.682730,0.683700
236.000000,0.678466,0.685460,0.683689,0.682376,0.683813
237.000000,0.679301,0.685302,0.685059,0.682361,0.688438
238.000000,0.678579,0.682290,0.684162,0.681515,0.667682
239.000000,0.676887,0.679199,0.682927,0.680515,0.660801
240.000000,0.671946,0.675860,0.681269,0.679774,0.658996
241.000000,0.667005,0.672735,0.679741,0.679263,0.659109
242.000000,0.661455,0.670378,0.678460,0.678590,0.660688
243.000000,0.662831,0.670705,0.678178,0.678413,0.674563
244.000000,0.668314,0.672600,0.678737,0.678669,0.688212
245.000000,0.676842,0.674394,0.680000,0.679865,0.701636
246.000000,0.686294,0.676650,0.681055,0.681342,0.706373
247.000000,0.695499,0.678477,0.681889,0.682865,0.706712
248.000000,0.702538,0.682685,0.682487,0.683670,0.709757
249.000000,0.708720,0.688517,0.683858,0.684790,0.719120
250.000000,0.714292,0.695567,0.685713,0.686035,0.729498
251.000000,0.720180,0.703237,0.687986,0.687573,0.735815
252.000000,0.722662,0.709081,0.689729,0.688667,0.719120
253.000000,0.724241,0.713390,0.692047,0.689915,0.717654
254.000000,0.723158,0.715939,0.694270,0.691137,0.713706
255.000000,0.719436,0.716864,0.695629,0.692288,0.710886
256.000000,0.715240,0.717710,0.697180,0.693273,0.714834
257.000000,0.713796,0.718229,0.698353,0.694003,0.711901
258.000000,0.714179,0.719210,0.700948,0.694728,0.719571
259.000000,0.712532,0.717845,0.703181,0.695187,0.705471
260.000000,0.712961,0.716199,0.705883,0.695875,0.713029
261.000000,0.711585,0.713412,0.708325,0.696462,0.707953
262.000000,0.711111,0.712453,0.710767,0.697304,0.709532
263.000000,0.709329,0.711754,0.712572,0.698616,0.710660
264.000000,0.710773,0.711653,0.713796,0.700064,0.712690
265.000000,0.710637,0.711799,0.714332,0.701019,0.712352
266.000000,0.709893,0.710739,0.714224,0.701700,0.704230
267.000000,0.706418,0.708765,0.713497,0.701824,0.692160
268.000000,0.701545,0.705437,0.712324,0.702444,0.686294
269.000000,0.698613,0.704693,0.711269,0.703685,0.698026
270.000000,0.694777,0.702707,0.709453,0.704824,0.693175
271.000000,0.693942,0.701918,0.707665,0.706189,0.700056
272.000000,0.694845,0.700632,0.706543,0.707389,0.696672
273.000000,0.693762,0.697654,0.704704,0.707599,0.680880
274.000000,0.690919,0.694766,0.703209,0.707453,0.683813
275.000000,0.688415,0.691596,0.701698,0.706753,0.680654
276.000000,0.686543,0.690243,0.700491,0.706230,0.690694
277.000000,0.686520,0.690682,0.699724,0.705892,0.696560
278.000000,0.688844,0.691303,0.698370,0.705317,0.692499
279.000000,0.690716,0.690818,0.697755,0.704452,0.693175
280.000000,0.693130,0.690773,0.696740,0.703226,0.692724
281.000000,0.694574,0.690558,0.696238,0.701963,0.697913
282.000000,0.694687,0.690603,0.695618,0.701230,0.697124
283.000000,0.696153,0.692499,0.695076,0.700635,0.699831
284.000000,0.695973,0.693345,0.694055,0.699921,0.692273
285.000000,0.696199,0.694664,0.693130,0.699353,0.693852
286.000000,0.696875,0.695725,0.692984,0.698902,0.701297
287.000000,0.700936,0.697812,0.694247,0.699086,0.717428
288.000000,0.704726,0.700440,0.695871,0.699060,0.718782
289.000000,0.710525,0.703249,0.697033,0.699586,0.721263
290.000000,0.717112,0.706655,0.698714,0.700045,0.726791
291.000000,0.728731,0.712803,0.701681,0.701760,0.759391
292.000000,0.735680,0.718308,0.704456,0.703181,0.752171
293.000000,0.744997,0.724862,0.708680,0.705005,0.765369
294.000000,0.752893,0.731709,0.712527,0.706607,0.760745
295.000000,0.759255,0.738184,0.716424,0.708148,0.758601
296.000000,0.759165,0.743948,0.719836,0.709972,0.758940
297.000000,0.759255,0.747468,0.722640,0.711987,0.752623
298.000000,0.755104,0.750051,0.725245,0.713931,0.744614
299.000000,0.752126,0.752510,0.727879,0.715525,0.745854
300.000000,0.747366,0.753311,0.729983,0.716913,0.734800
301.000000,0.743260,0.751213,0.732008,0.718191,0.738409
302.000000,0.740598,0.749927,0.734117,0.719613,0.739312
303.000000,0.741027,0.748065,0.736464,0.721809,0.746757
304.000000,0.738725,0.745426,0.738567,0.723493,0.734349
305.000000,0.737958,0.742662,0.740423,0.725170,0.730964
306.000000,0.735657,0.739459,0.741703,0.726377,0.726904
307.000000,0.732183,0.736390,0.741929,0.727223,0.721940
308.000000,0.727377,0.734202,0.742126,0.728231,0.722730
309.000000,0.724264,0.731495,0.742002,0.729084,0.718782
310.000000,0.723001,0.730479,0.741895,0.730149,0.724647
311.000000,0.723474,0.729566,0.740389,0.731194,0.729272
312.000000,0.727265,0.729724,0.739825,0.732653,0.740891
313.000000,0.733085,0.730231,0.739148,0.734386,0.751833
314.000000,0.741455,0.732860,0.739143,0.736665,0.760632
315.000000,0.749148,0.736074,0.739368,0.738973,0.763113
316.000000,0.753841,0.738658,0.739058,0.740688,0.752735
317.000000,0.752262,0.739763,0.738077,0.741207,0.732995
318.000000,0.749780,0.741433,0.737817,0.741895,0.739425
319.000000,0.746080,0.743768,0.737631,0.742591,0.742132
320.000000,0.740327,0.744738,0.737609,0.742843,0.734349
321.000000,0.735161,0.744501,0.737033,0.741760,0.726904
322.000000,0.735657,0.743959,0.736842,0.741203,0.735477
323.000000,0.735747,0.742764,0.736497,0.740353,0.739876
324.000000,0.736514,0.741297,0.737078,0.739861,0.745967
325.000000,0.738770,0.739549,0.737812,0.739428,0.745629
326.000000,0.744365,0.739763,0.739210,0.739293,0.754879
327.000000,0.747479,0.741568,0.740666,0.739240,0.751043
328.000000,0.749171,0.742459,0.741946,0.739365,0.748336
329.000000,0.747253,0.741884,0.742826,0.739049,0.736379
330.000000,0.743824,0.741297,0.743017,0.738838,0.728483
331.000000,0.738409,0.741387,0.742944,0.738485,0.727806
332.000000,0.733920,0.740699,0.742329,0.738127,0.728596
333.000000,0.728370,0.738770,0.740767,0.737255,0.720587
334.000000,0.725708,0.736481,0.738889,0.736879,0.723068
335.000000,0.725708,0.734766,0.737157,0.736796,0.728483
336.000000,0.725572,0.731991,0.735877,0.736804,0.727129
337.000000,0.723339,0.728629,0.735099,0.736654,0.717428
338.000000,0.723226,0.725798,0.734129,0.736563,0.720023
339.000000,0.722121,0.723914,0.732899,0.736522,0.717541
340.000000,0.722121,0.723914,0.732606,0.736650,0.728483
341.000000,0.723362,0.724467,0.732927,0.736785,0.733333
342.000000,0.727513,0.725426,0.733063,0.736695,0.738184
343.000000,0.731190,0.727208,0.732989,0.736247,0.738409
344.000000,0.735589,0.728855,0.732668,0.735544,0.739538
345.000000,0.737552,0.729836,0.732301,0.734717,0.738297
346.000000,0.740327,0.731844,0.731918,0.734533,0.747208
347.000000,0.740327,0.733920,0.731275,0.734706,0.738184
348.000000,0.741455,0.736323,0.731060,0.734860,0.744050
349.000000,0.744839,0.740214,0.732064,0.735337,0.756458
350.000000,0.749577,0.743565,0.733739,0.736259,0.761985
351.000000,0.753660,0.746994,0.735730,0.737616,0.767625
352.000000,0.760541,0.750434,0.737930,0.738853,0.772589
353.000000,0.765663,0.753559,0.740384,0.739846,0.769656
354.000000,0.767648,0.756244,0.742549,0.740526,0.766385
355.000000,0.767310,0.758443,0.744140,0.741015,0.760293
356.000000,0.765595,0.759628,0.745736,0.741154,0.759052
357.000000,0.762707,0.761624,0.747772,0.741391,0.758150
358.000000,0.763519,0.764591,0.750457,0.742237,0.773717
359.000000,0.767107,0.767377,0.753796,0.743835,0.784320
360.000000,0.771077,0.769193,0.756379,0.745557,0.780147
361.000000,0.774349,0.769972,0.758483,0.747144,0.775409
362.000000,0.776334,0.769521,0.759977,0.748460,0.768077
363.000000,0.774800,0.769160,0.761359,0.749976,0.766046
364.000000,0.772025,0.769566,0.762905,0.751555,0.770446
365.000000,0.775454,0.773266,0.765854,0.753848,0.797293
366.000000,0.783847,0.779098,0.769363,0.756857,0.817372
367.000000,0.793457,0.784896,0.773260,0.760147,0.816131
368.000000,0.807648,0.791224,0.777908,0.764046,0.836999
369.000000,0.827118,0.799571,0.783474,0.769054,0.867795
370.000000,0.841918,0.808686,0.788940,0.773815,0.871292
371.000000,0.855296,0.819571,0.794772,0.778846,0.884264
372.000000,0.868990,0.831224,0.800372,0.783726,0.884602
373.000000,0.877766,0.842707,0.805933,0.788475,0.880880
374.000000,0.880203,0.853660,0.811613,0.793157,0.879977
375.000000,0.883835,0.862876,0.818071,0.798195,0.889453
376.000000,0.889679,0.872487,0.825792,0.803738,0.913480
377.000000,0.892070,0.880530,0.832713,0.809017,0.896560
378.000000,0.895973,0.886870,0.839047,0.814228,0.900395
379.000000,0.897056,0.888629,0.844100,0.818526,0.885392
380.000000,0.895477,0.889656,0.849171,0.822512,0.881557
381.000000,0.891506,0.890592,0.855082,0.826712,0.893627
382.000000,0.889408,0.890739,0.860981,0.830494,0.886069
383.000000,0.886768,0.891371,0.867039,0.834412,0.887197
384.000000,0.887355,0.892205,0.872933,0.838477,0.888325
385.000000,0.886994,0.891235,0.877056,0.842459,0.879752
386.000000,0.885708,0.888607,0.880547,0.846731,0.887197
387.000000,0.885234,0.887321,0.883926,0.850916,0.883700
388.000000,0.886701,0.886734,0.886802,0.854943,0.894529
389.000000,0.888257,0.887806,0.888218,0.858669,0.896108
390.000000,0.894078,0.890536,0.890096,0.862959,0.908855
391.000000,0.901230,0.893469,0.892030,0.867877,0.922955
392.000000,0.908539,0.896887,0.893813,0.872950,0.920248
393.000000,0.910186,0.898443,0.894907,0.877507,0.902764
394.000000,0.910615,0.899436,0.895821,0.881767,0.898252
395.000000,0.908787,0.901433,0.896334,0.885181,0.899718
396.000000,0.902876,0.902053,0.895330,0.887716,0.893401
397.000000,0.892724,0.900632,0.893976,0.889494,0.869487
398.000000,0.886182,0.898184,0.892459,0.890596,0.870051
399.000000,0.882098,0.896356,0.892081,0.890931,0.877834
400.000000,0.876007,0.892397,0.891466,0.890863,0.869261
401.000000,0.871450,0.887163,0.890316,0.890408,0.870615
402.000000,0.874157,0.883440,0.890164,0.890355,0.883023
403.000000,0.881060,0.883621,0.891032,0.891145,0.904569
404.000000,0.890491,0.886294,0.892865,0.892645,0.924986
405.000000,0.899515,0.887761,0.894597,0.893476,0.914382
406.000000,0.910276,0.890863,0.896458,0.893841,0.924422
407.000000,0.918353,0.896255,0.898443,0.894736,0.923407
408.000000,0.923768,0.902414,0.900299,0.895777,0.931641
409.000000,0.924241,0.907366,0.901861,0.897176,0.927355
410.000000,0.928686,0.914100,0.903249,0.899011,0.936605
411.000000,0.931280,0.920778,0.903971,0.900470,0.937394
412.000000,0.934303,0.926328,0.904884,0.902218,0.938522
413.000000,0.936018,0.929893,0.906757,0.903986,0.940214
414.000000,0.939357,0.931799,0.909047,0.905843,0.944050
415.000000,0.945832,0.937259,0.912510,0.908817,0.968979
416.000000,0.952803,0.942042,0.916452,0.911653,0.972250
417.000000,0.960609,0.947456,0.921856,0.914781,0.977552
418.000000,0.970491,0.953254,0.927834,0.917951,0.989622
419.000000,0.980756,0.960056,0.933711,0.921260,0.995375
420.000000,0.986960,0.966396,0.940248,0.924298,1.000000
421.000000,0.989893,0.971348,0.946063,0.926430,0.986915
422.000000,0.991043,0.975826,0.951077,0.928532,0.983305
423.000000,0.990209,0.980350,0.955121,0.931288,0.985448
424.000000,0.986328,0.983542,0.957671,0.933879,0.975973
425.000000,0.981591,0.984275,0.960767,0.936432,0.976311
426.000000,0.980192,0.985042,0.963542,0.939316,0.979921
427.000000,0.975860,0.983452,0.965454,0.942388,0.961647
428.000000,0.970739,0.980474,0.966864,0.945381,0.959842
429.000000,0.971528,0.978928,0.969492,0.948784,0.979921
430.000000,0.971889,0.976740,0.971568,0.952412,0.978116
431.000000,0.972318,0.976255,0.973801,0.956127,0.982064
432.000000,0.976063,0.975962,0.975894,0.959372,0.980372
433.000000,0.974755,0.972747,0.976548,0.960996,0.953299
434.000000,0.967580,0.969554,0.976548,0.961632,0.944050
435.000000,0.963542,0.967716,0.975995,0.963083,0.957924
436.000000,0.954360,0.963339,0.974191,0.963474,0.936153
437.000000,0.947231,0.961647,0.972549,0.964185,0.944726
438.000000,0.946667,0.960711,0.970592,0.964813,0.950479
439.000000,0.945719,0.956650,0.967789,0.965212,0.939312
440.000000,0.941230,0.952386,0.964563,0.965174,0.935477
441.000000,0.940823,0.947592,0.961923,0.965065,0.934123
442.000000,0.939154,0.943192,0.959577,0.964993,0.936379
443.000000,0.934687,0.940677,0.956712,0.964591,0.928144
444.000000,0.929182,0.937451,0.953503,0.963516,0.911788
445.000000,0.922640,0.931935,0.949825,0.961309,0.902764
446.000000,0.899583,0.920203,0.941771,0.956195,0.818838
447.000000,0.873322,0.906238,0.933942,0.950446,0.805076
448.000000,0.838218,0.886452,0.923582,0.942546,0.752623
449.000000,0.808167,0.868675,0.912662,0.934751,0.761534
450.000000,0.785787,0.854213,0.903299,0.927780,0.790863
451.000000,0.791404,0.845494,0.896543,0.923113,0.846926
452.000000,0.801782,0.837552,0.890372,0.918902,0.856966
453.000000,0.822380,0.830299,0.885488,0.914574,0.855612
454.000000,0.845550,0.826858,0.882155,0.911288,0.877383
455.000000,0.858432,0.822109,0.877022,0.907253,0.855274
456.000000,0.862200,0.826802,0.873503,0.903448,0.865764
457.000000,0.864501,0.833142,0.869690,0.900342,0.868472
458.000000,0.864298,0.843339,0.864896,0.896834,0.854597
459.000000,0.861726,0.853638,0.861156,0.892987,0.864523
460.000000,0.865629,0.862030,0.858122,0.889543,0.874788
461.000000,0.865742,0.863971,0.854732,0.885685,0.866328
462.000000,0.865200,0.864851,0.851201,0.881865,0.865764
463.000000,0.867479,0.865888,0.848094,0.878955,0.865990
464.000000,0.862425,0.862076,0.844467,0.875462,0.839255
465.000000,0.856808,0.861218,0.841664,0.871754,0.846701
466.000000,0.853469,0.859605,0.843204,0.868870,0.849633
467.000000,0.856334,0.860767,0.846954,0.866716,0.880090
468.000000,0.858297,0.862888,0.853113,0.864226,0.875804
469.000000,0.864208,0.863316,0.858477,0.861876,0.868810
470.000000,0.870164,0.863486,0.862758,0.859910,0.876481
471.000000,0.870976,0.862222,0.863096,0.857229,0.853694
472.000000,0.871653,0.863993,0.864422,0.855465,0.883474
473.000000,0.875646,0.866971,0.866430,0.854386,0.895770
474.000000,0.883204,0.873706,0.867891,0.854213,0.906599
475.000000,0.889904,0.880034,0.870626,0.854454,0.909983
476.000000,0.901365,0.886170,0.872888,0.857526,0.910998
477.000000,0.906328,0.888990,0.874879,0.860966,0.908291
478.000000,0.908652,0.892149,0.877518,0.866125,0.907389
479.000000,0.907343,0.895274,0.879295,0.870743,0.900056
480.000000,0.904230,0.897067,0.880276,0.874194,0.894416
481.000000,0.888957,0.895161,0.878691,0.873785,0.834631
482.000000,0.866712,0.886520,0.875257,0.871788,0.797067
483.000000,0.846813,0.877733,0.872352,0.870197,0.807896
484.000000,0.830570,0.868957,0.871331,0.868246,0.818838
485.000000,0.815071,0.859650,0.869842,0.866967,0.816920
486.000000,0.808934,0.848945,0.867558,0.864907,0.803948
487.000000,0.801241,0.833976,0.861483,0.861245,0.758601
488.000000,0.796684,0.821748,0.856949,0.858928,0.785110
489.000000,0.781636,0.806103,0.850688,0.854898,0.743598
490.000000,0.764918,0.789994,0.843531,0.850182,0.733333
491.000000,0.748111,0.778522,0.836842,0.845302,0.719910
492.000000,0.734281,0.767761,0.827140,0.839425,0.689453
493.000000,0.715195,0.755939,0.816836,0.833548,0.689679
494.000000,0.713232,0.747434,0.808195,0.830032,0.733785
495.000000,0.715195,0.740056,0.799853,0.826580,0.743147
496.000000,0.722910,0.735510,0.792228,0.823542,0.758488
497.000000,0.734303,0.734292,0.784134,0.819086,0.746418
498.000000,0.746035,0.730615,0.776182,0.814837,0.748336
499.000000,0.748178,0.730705,0.768404,0.810694,0.744501
500.000000,0.750367,0.732781,0.761387,0.806614,0.754089
501.000000,0.753931,0.738421,0.758472,0.804035,0.776311
502.000000,0.758872,0.746588,0.757174,0.800290,0.771122
503.000000,0.763497,0.754766,0.755353,0.796146,0.771461
504.000000,0.770874,0.759526,0.753480,0.791972,0.781387
505.000000,0.768415,0.759391,0.749724,0.786366,0.741794
506.000000,0.758127,0.756029,0.745770,0.780162,0.724873
507.000000,0.746554,0.752713,0.743503,0.773660,0.713254
508.000000,0.737033,0.750265,0.740440,0.767543,0.723858
509.000000,0.724490,0.747682,0.739193,0.761497,0.718669
510.000000,0.713277,0.740846,0.736813,0.754540,0.685730
511.000000,0.700192,0.729160,0.733790,0.748701,0.659447
512.000000,0.689521,0.718037,0.732312,0.744129,0.659898
513.000000,0.678601,0.707817,0.731292,0.739507,0.669261
514.000000,0.674337,0.699413,0.729470,0.735458,0.697349
515.000000,0.676368,0.694822,0.727107,0.731423,0.695883
516.000000,0.685324,0.692758,0.724394,0.728099,0.704230
517.000000,0.697755,0.693638,0.723175,0.726881,0.722053
518.000000,0.708426,0.693514,0.721889,0.724798,0.722617
519.000000,0.725595,0.699966,0.723824,0.726118,0.783192
520.000000,0.741839,0.709103,0.724975,0.727577,0.777101
521.000000,0.751156,0.718240,0.723700,0.728607,0.750818
522.000000,0.758218,0.727986,0.723012,0.730870,0.757360
523.000000,0.765595,0.737011,0.722414,0.733198,0.759504
524.000000,0.765234,0.745415,0.722414,0.734785,0.781387
525.000000,0.768618,0.755228,0.725025,0.736481,0.794021
526.000000,0.775116,0.763136,0.727947,0.737308,0.783305
527.000000,0.783192,0.770705,0.732171,0.739019,0.797744
528.000000,0.789239,0.777417,0.735465,0.740399,0.789735
529.000000,0.789329,0.777281,0.738624,0.741643,0.781839
530.000000,0.788449,0.778534,0.743818,0.742828,0.789622
531.000000,0.788246,0.781681,0.749961,0.743027,0.782290
532.000000,0.788742,0.785967,0.756977,0.743997,0.800226
533.000000,0.794292,0.791765,0.764388,0.745531,0.817484
534.000000,0.802482,0.795905,0.770660,0.746911,0.822786
535.000000,0.807783,0.798116,0.776672,0.749389,0.816131
536.000000,0.811799,0.800023,0.781579,0.751972,0.802369
537.000000,0.813717,0.801230,0.785967,0.755191,0.809814
538.000000,0.813536,0.803914,0.790666,0.758282,0.816582
539.000000,0.809746,0.806114,0.791698,0.761121,0.803835
540.000000,0.810152,0.808968,0.793751,0.765535,0.818161
541.000000,0.810039,0.810919,0.796300,0.770280,0.801805
542.000000,0.822493,0.818105,0.802036,0.777353,0.872081
543.000000,0.834585,0.824061,0.807913,0.784279,0.877045
544.000000,0.854822,0.832284,0.814095,0.791201,0.905020
545.000000,0.872420,0.841286,0.819701,0.798210,0.906148
546.000000,0.894258,0.852149,0.826086,0.805102,0.910998
547.000000,0.903034,0.862764,0.831997,0.811566,0.915962
548.000000,0.906170,0.870378,0.837146,0.817236,0.892724
549.000000,0.902831,0.878827,0.842470,0.820741,0.888325
550.000000,0.895409,0.883914,0.846441,0.823805,0.869036
551.000000,0.888799,0.891528,0.851224,0.828043,0.877947
552.000000,0.880699,0.891867,0.854986,0.831980,0.875465
553.000000,0.875014,0.890592,0.857327,0.835473,0.864298
554.000000,0.872284,0.887558,0.859921,0.838582,0.874676
555.000000,0.875285,0.885347,0.863316,0.841583,0.884038
556.000000,0.873841,0.881320,0.866734,0.844497,0.870728
557.000000,0.876729,0.878714,0.870739,0.847569,0.889904
558.000000,0.881918,0.878466,0.874422,0.850919,0.890243
559.000000,0.882143,0.877214,0.878020,0.854052,0.875804
560.000000,0.878985,0.877135,0.880525,0.856672,0.868246
561.000000,0.879684,0.876763,0.884146,0.859737,0.874224
562.000000,0.879662,0.878195,0.885031,0.862722,0.889791
563.000000,0.883971,0.882944,0.886768,0.865866,0.911788
564.000000,0.892318,0.887231,0.887394,0.869024,0.917541
565.000000,0.903689,0.891337,0.888342,0.872657,0.925099
566.000000,0.915240,0.897462,0.889391,0.876977,0.931980
567.000000,0.923813,0.901737,0.890226,0.881072,0.932657
568.000000,0.930491,0.907231,0.892848,0.885358,0.945178
569.000000,0.935838,0.914078,0.895646,0.890039,0.944275
570.000000,0.940666,0.922177,0.899656,0.894409,0.949239
571.000000,0.942651,0.928945,0.902854,0.899079,0.941906
572.000000,0.944478,0.934146,0.906170,0.901403,0.941794
573.000000,0.947095,0.938793,0.910869,0.904110,0.958263
574.000000,0.951765,0.943801,0.915516,0.906197,0.967625
575.000000,0.955307,0.947986,0.919662,0.908223,0.966949
576.000000,0.958759,0.950705,0.924083,0.909829,0.959165
577.000000,0.961647,0.953063,0.927400,0.911171,0.956232
578.000000,0.959481,0.953288,0.930259,0.912995,0.947434
579.000000,0.958895,0.955330,0.934704,0.915541,0.964693
580.000000,0.959820,0.957563,0.939870,0.918958,0.971574
581.000000,0.960361,0.959560,0.944253,0.921756,0.961873
582.000000,0.959707,0.960677,0.947411,0.924339,0.952961
583.000000,0.961534,0.960508,0.949650,0.927415,0.956571
584.000000,0.961399,0.960147,0.951974,0.930393,0.964016
585.000000,0.957022,0.958421,0.953204,0.932581,0.949690
586.000000,0.956954,0.958658,0.954681,0.935608,0.961534
587.000000,0.957406,0.958556,0.955809,0.937785,0.955217
588.000000,0.954788,0.958161,0.955725,0.939560,0.943486
589.000000,0.949983,0.955691,0.955510,0.941700,0.939989
590.000000,0.949757,0.953390,0.955477,0.944377,0.948562
591.000000,0.943553,0.950254,0.954907,0.946253,0.930513
592.000000,0.933807,0.945606,0.953142,0.946810,0.906486
593.000000,0.927377,0.941083,0.950795,0.946795,0.911337
594.000000,0.921737,0.935860,0.948003,0.946603,0.911788
595.000000,0.912578,0.931168,0.944794,0.945858,0.902764
596.000000,0.909893,0.926723,0.942690,0.945362,0.917090
597.000000,0.914698,0.924253,0.941404,0.945290,0.930513
598.000000,0.916142,0.921760,0.939961,0.944403,0.918556
599.000000,0.918804,0.920271,0.937981,0.943764,0.925099
600.000000,0.923226,0.917902,0.935646,0.942952,0.924873
601.000000,0.924038,0.916966,0.933610,0.942260,0.921151
602.000000,0.921715,0.918206,0.931906,0.941497,0.918895
603.000000,0.920135,0.918139,0.929611,0.939910,0.910660
604.000000,0.914382,0.916593,0.926227,0.937533,0.896334
605.000000,0.906960,0.915093,0.923130,0.934894,0.887761
606.000000,0.900485,0.912262,0.919492,0.932547,0.888776
607.000000,0.895995,0.908855,0.916554,0.930555,0.896447
608.000000,0.891754,0.905945,0.913852,0.928622,0.889453
609.000000,0.887355,0.900869,0.910570,0.925610,0.874337
610.000000,0.884670,0.895815,0.906858,0.922369,0.874337
611.000000,0.880745,0.890615,0.903790,0.919278,0.869148
612.000000,0.875172,0.885584,0.901895,0.916466,0.868584
613.000000,0.872916,0.882335,0.900237,0.913852,0.878173
614.000000,0.873074,0.880214,0.898404,0.910889,0.875127
615.000000,0.872104,0.878387,0.896740,0.908216,0.869487
616.000000,0.870367,0.875556,0.893909,0.904847,0.860462
617.000000,0.868472,0.871822,0.890338,0.901643,0.859109
618.000000,0.868156,0.870536,0.888240,0.899413,0.876593
619.000000,0.871021,0.872047,0.886458,0.897729,0.889453
620.000000,0.875059,0.873582,0.884698,0.895766,0.889679
621.000000,0.886407,0.878387,0.884501,0.895322,0.917202
622.000000,0.899267,0.883869,0.884726,0.895886,0.923407
623.000000,0.907953,0.888054,0.885195,0.896176,0.920023
624.000000,0.911404,0.891213,0.885713,0.896007,0.906712
625.000000,0.917586,0.896323,0.887355,0.896601,0.920587
626.000000,0.913051,0.899729,0.887642,0.895849,0.894529
627.000000,0.907682,0.903474,0.887648,0.894717,0.896560
628.000000,0.898906,0.903429,0.886983,0.893303,0.876142
629.000000,0.892408,0.901906,0.886977,0.891607,0.874224
630.000000,0.877699,0.897642,0.885612,0.889013,0.847039
631.000000,0.869397,0.891224,0.884805,0.886742,0.853017
632.000000,0.857484,0.882583,0.883226,0.884012,0.836999
633.000000,0.851619,0.875262,0.881658,0.881884,0.846813
634.000000,0.851574,0.871991,0.881602,0.881139,0.873999
635.000000,0.861658,0.869679,0.883001,0.881463,0.897462
636.000000,0.872939,0.871168,0.885448,0.882151,0.909419
637.000000,0.883542,0.870513,0.886994,0.881936,0.890017
638.000000,0.891664,0.871641,0.887535,0.881869,0.887422
639.000000,0.893198,0.872386,0.887146,0.882113,0.881669
640.000000,0.886317,0.873988,0.885815,0.881737,0.863057
641.000000,0.875195,0.874067,0.882645,0.881226,0.853807
642.000000,0.861974,0.872758,0.877671,0.879737,0.823914
643.000000,0.846362,0.869013,0.872138,0.877443,0.809363
644.000000,0.827953,0.860575,0.866283,0.874593,0.789622
645.000000,0.812476,0.849397,0.859538,0.871799,0.785674
646.000000,0.799459,0.837327,0.854247,0.869408,0.788720
647.000000,0.798308,0.830141,0.850327,0.868043,0.818161
648.000000,0.797947,0.822155,0.846898,0.865742,0.807558
649.000000,0.800406,0.814179,0.843283,0.862824,0.801918
650.000000,0.797067,0.804772,0.839380,0.858801,0.768979
651.000000,0.789103,0.794281,0.834174,0.853190,0.748900
652.000000,0.762617,0.780462,0.826610,0.845268,0.685730
653.000000,0.735747,0.766847,0.817930,0.837041,0.673209
654.000000,0.698996,0.749701,0.805138,0.827422,0.618161
655.000000,0.679143,0.738105,0.793751,0.819060,0.669712
656.000000,0.660282,0.724693,0.781010,0.811062,0.654597
657.000000,0.654958,0.708787,0.769464,0.803147,0.659109
658.000000,0.647242,0.691495,0.756825,0.795097,0.634631
659.000000,0.653153,0.676074,0.745127,0.787547,0.647716
660.000000,0.648641,0.663892,0.734332,0.780884,0.647152
661.000000,0.646520,0.653401,0.723841,0.773916,0.643993
662.000000,0.639504,0.647231,0.713847,0.766817,0.624027
663.000000,0.631923,0.639583,0.703215,0.758481,0.596729
664.000000,0.619064,0.636108,0.692905,0.748795,0.583418
665.000000,0.604174,0.626407,0.682256,0.737970,0.572702
666.000000,0.587592,0.617056,0.670874,0.726358,0.561083
667.000000,0.576447,0.607975,0.658381,0.715635,0.568302
668.000000,0.578455,0.605189,0.648342,0.706279,0.606768
669.000000,0.584929,0.601997,0.639036,0.697417,0.615792
670.000000,0.594473,0.599323,0.631607,0.689329,0.620417
671.000000,0.600406,0.593999,0.623700,0.680560,0.590750
672.000000,0.606317,0.591382,0.619306,0.673025,0.597857
673.000000,0.603948,0.591201,0.615392,0.665877,0.594924
674.000000,0.596390,0.590660,0.613384,0.658823,0.578003
675.000000,0.589983,0.592228,0.609318,0.652247,0.588381
676.000000,0.587975,0.594191,0.605623,0.645313,0.580711
677.000000,0.584208,0.595262,0.601619,0.637342,0.579019
678.000000,0.576244,0.590096,0.597642,0.628926,0.555104
679.000000,0.571010,0.583700,0.592848,0.620590,0.551833
680.000000,0.564715,0.577349,0.588336,0.613521,0.556909
681.000000,0.562617,0.575296,0.584647,0.607565,0.570220
682.000000,0.560429,0.572318,0.581850,0.603644,0.568077
683.000000,0.562256,0.569250,0.580226,0.600011,0.564241
684.000000,0.566588,0.568799,0.579729,0.598522,0.573491
685.000000,0.569724,0.567219,0.579724,0.595285,0.572589
686.000000,0.566272,0.564444,0.579318,0.591897,0.552961
687.000000,0.562121,0.561275,0.578268,0.588171,0.547321
688.000000,0.557383,0.559820,0.574958,0.585035,0.540553
689.000000,0.543576,0.555082,0.569391,0.580259,0.504456
690.000000,0.523384,0.546554,0.561951,0.574409,0.471630
691.000000,0.510344,0.538308,0.556802,0.569201,0.487761
692.000000,0.504253,0.533187,0.552752,0.565629,0.516864
693.000000,0.504478,0.530931,0.550090,0.563794,0.541681
694.000000,0.517789,0.530682,0.549741,0.563380,0.571010
695.000000,0.540508,0.531946,0.549583,0.563798,0.585223
696.000000,0.563519,0.536932,0.550688,0.565189,0.602820
697.000000,0.582267,0.543260,0.552267,0.566599,0.610603
698.000000,0.594382,0.549430,0.554625,0.566449,0.602256
699.000000,0.597090,0.557439,0.556261,0.565407,0.584546
700.000000,0.596120,0.568314,0.557434,0.564072,0.580372
701.000000,0.590525,0.577022,0.557665,0.563542,0.574845
702.000000,0.585629,0.583948,0.558567,0.563151,0.586125
703.000000,0.582267,0.588325,0.559628,0.562835,0.585448
704.000000,0.580530,0.588810,0.559746,0.562764,0.575860
705.000000,0.578928,0.587524,0.559735,0.562230,0.572363
706.000000,0.573920,0.582222,0.559577,0.561199,0.549803
707.000000,0.563813,0.574721,0.558990,0.559752,0.535589
708.000000,0.554901,0.568584,0.559007,0.559278,0.540891
709.000000,0.543711,0.562121,0.559780,0.558214,0.519910
710.000000,0.528257,0.553593,0.560953,0.556153,0.495093
711.000000,0.521286,0.547603,0.562312,0.554311,0.514946
712.000000,0.518331,0.541072,0.562510,0.552735,0.520812
713.000000,0.512916,0.533909,0.561117,0.551055,0.513818
714.000000,0.512059,0.527885,0.558347,0.549126,0.515623
715.000000,0.515510,0.521884,0.554704,0.547118,0.512352
716.000000,0.509351,0.515319,0.548770,0.544824,0.484151
717.000000,0.495612,0.506971,0.540846,0.541651,0.452115
718.000000,0.481940,0.497428,0.533006,0.538481,0.445460
719.000000,0.464681,0.488370,0.525245,0.535977,0.429329
720.000000,0.446633,0.481072,0.517332,0.534326,0.422109
721.000000,0.430773,0.470062,0.508832,0.531562,0.404851
722.000000,0.416920,0.456266,0.498669,0.527095,0.382854
723.000000,0.403790,0.442865,0.488387,0.521700,0.379808
724.000000,0.399684,0.432183,0.480034,0.516293,0.408799
725.000000,0.395691,0.421162,0.471523,0.510190,0.402143
726.000000,0.395149,0.412961,0.464140,0.503501,0.402143
727.000000,0.396864,0.406892,0.456932,0.496195,0.391427
728.000000,0.398421,0.401105,0.449267,0.489039,0.387592
729.000000,0.393638,0.396661,0.442516,0.482384,0.384884
730.000000,0.391630,0.393660,0.437366,0.476108,0.392104
731.000000,0.391201,0.393175,0.431619,0.470280,0.400000
732.000000,0.392465,0.394664,0.425465,0.464001,0.397744
733.000000,0.393299,0.395860,0.419363,0.457545,0.391765
734.000000,0.393029,0.393333,0.412758,0.451134,0.383531
735.000000,0.386012,0.388821,0.404992,0.443956,0.357022
736.000000,0.375274,0.383237,0.398099,0.437172,0.346306
737.000000,0.362527,0.377496,0.392194,0.430453,0.334010
738.000000,0.344794,0.369047,0.385076,0.422527,0.303102
739.000000,0.330423,0.361726,0.379193,0.415586,0.311675
740.000000,0.327468,0.356740,0.375200,0.410491,0.342245
741.000000,0.324738,0.350006,0.371591,0.404414,0.332657
742.000000,0.318285,0.340406,0.367535,0.397112,0.301748
743.000000,0.315736,0.330265,0.363063,0.389663,0.290355
744.000000,0.310637,0.320530,0.356932,0.382015,0.286182
745.000000,0.301884,0.314676,0.351748,0.374886,0.298477
746.000000,0.292521,0.308629,0.345933,0.368276,0.285843
747.000000,0.286791,0.302538,0.340017,0.362309,0.273096
748.000000,0.283091,0.299413,0.334230,0.356522,0.271856
749.000000,0.286136,0.298387,0.330056,0.352258,0.301410
750.000000,0.293672,0.297778,0.327259,0.349393,0.336153
751.000000,0.303125,0.297823,0.323914,0.347001,0.333108
752.000000,0.314247,0.300519,0.320462,0.345196,0.328708
753.000000,0.323655,0.303373,0.316819,0.343166,0.318895
754.000000,0.325708,0.305922,0.313226,0.339929,0.311675
755.000000,0.323587,0.308629,0.311653,0.337375,0.325550
756.000000,0.321715,0.312420,0.310525,0.334762,0.323745
757.000000,0.320632,0.317439,0.309989,0.332491,0.323294
758.000000,0.315759,0.319707,0.309560,0.329389,0.294529
759.000000,0.308562,0.317135,0.307761,0.325749,0.275691
760.000000,0.300553,0.312070,0.304924,0.322196,0.285505
761.000000,0.290446,0.306080,0.301951,0.317970,0.273209
762.000000,0.278759,0.299695,0.300107,0.313540,0.264862
763.000000,0.266734,0.291246,0.297310,0.308295,0.234405
764.000000,0.263395,0.285979,0.295950,0.304144,0.258996
765.000000,0.250852,0.275702,0.292166,0.299669,0.222786
766.000000,0.234405,0.262425,0.287422,0.294491,0.190976
767.000000,0.216379,0.247569,0.282504,0.289182,0.174732
768.000000,0.211641,0.239188,0.279447,0.286103,0.210716
769.000000,0.205460,0.234428,0.275781,0.283316,0.228088
770.000000,0.204557,0.227704,0.269887,0.279184,0.218274
771.000000,0.213017,0.223711,0.264896,0.275871,0.233277
772.000000,0.225042,0.220711,0.260203,0.273642,0.234856
773.000000,0.231968,0.221805,0.256526,0.272141,0.245347
774.000000,0.236300,0.220880,0.253429,0.270927,0.249746
775.000000,0.240790,0.222673,0.249188,0.269002,0.240722
776.000000,0.240790,0.226904,0.244664,0.267249,0.233277
777.000000,0.240948,0.232995,0.240282,0.266001,0.235646
778.000000,0.243046,0.237507,0.238347,0.265467,0.255838
779.000000,0.243271,0.239786,0.237107,0.263783,0.250874
780.000000,0.238646,0.239718,0.233711,0.259831,0.217597
781.000000,0.227501,0.234146,0.228928,0.254646,0.177552
782.000000,0.216424,0.228686,0.224698,0.249697,0.180259
783.000000,0.198691,0.220869,0.221337,0.244640,0.167174
784.000000,0.183666,0.213469,0.217174,0.240109,0.175747
785.000000,0.178297,0.208472,0.215572,0.235616,0.190750
786.000000,0.183373,0.205437,0.216170,0.231589,0.202933
787.000000,0.187005,0.201715,0.217355,0.227426,0.198421
788.000000,0.191991,0.195341,0.216424,0.224012,0.192104
789.000000,0.198556,0.191111,0.215448,0.221775,0.208573
790.000000,0.197541,0.187919,0.213818,0.218447,0.185674
791.000000,0.194292,0.188832,0.211489,0.215563,0.186689
792.000000,0.194067,0.190536,0.209611,0.213311,0.197293
793.000000,0.198466,0.195228,0.208049,0.212634,0.214100
794.000000,0.199616,0.199086,0.206277,0.211145,0.214326
795.000000,0.204490,0.201015,0.204743,0.210720,0.210039
796.000000,0.211912,0.203102,0.204270,0.211814,0.223801
797.000000,0.220282,0.207174,0.204444,0.213961,0.239143
798.000000,0.226306,0.212386,0.203864,0.215078,0.244219
799.000000,0.234992,0.217304,0.204208,0.216067,0.257755
800.000000,0.239278,0.221884,0.204901,0.216507,0.231472
801.000000,0.239030,0.225471,0.207152,0.216150,0.222561
802.000000,0.235894,0.228088,0.209312,0.215770,0.223463
803.000000,0.234946,0.230626,0.212927,0.215574,0.239481
804.000000,0.229780,0.232386,0.215736,0.214980,0.231923
805.000000,0.227118,0.233198,0.217107,0.214228,0.218161
806.000000,0.234202,0.236616,0.219859,0.215052,0.257981
807.000000,0.243113,0.239504,0.223339,0.216131,0.268020
808.000000,0.249182,0.242064,0.227225,0.216597,0.269825
809.000000,0.253175,0.241478,0.229391,0.216631,0.251889
810.000000,0.261929,0.244523,0.233204,0.218109,0.261929
811.000000,0.257642,0.245922,0.235697,0.220075,0.236548
812.000000,0.254213,0.248663,0.238376,0.222429,0.250874
813.000000,0.248573,0.248878,0.239752,0.224911,0.241624
814.000000,0.247242,0.250209,0.241297,0.227227,0.245234
815.000000,0.243813,0.252871,0.243034,0.229028,0.244783
816.000000,0.247039,0.252341,0.244478,0.230686,0.252679
817.000000,0.244309,0.249261,0.244382,0.231980,0.237225
818.000000,0.242143,0.245358,0.243711,0.233269,0.230795
819.000000,0.239684,0.243463,0.242470,0.234082,0.232939
820.000000,0.240135,0.241974,0.243249,0.236127,0.247039
821.000000,0.239932,0.243486,0.244704,0.238293,0.251664
822.000000,0.244625,0.244467,0.246565,0.240406,0.260688
823.000000,0.250807,0.246475,0.247676,0.241993,0.261703
824.000000,0.263147,0.251416,0.250812,0.244670,0.294642
825.000000,0.271675,0.255905,0.254388,0.247325,0.289679
826.000000,0.277812,0.258872,0.255606,0.249276,0.282346
827.000000,0.280541,0.262583,0.255922,0.250449,0.274337
828.000000,0.285076,0.267941,0.256650,0.251788,0.284377
829.000000,0.289295,0.276221,0.259842,0.253721,0.315736
830.000000,0.295003,0.283339,0.262657,0.256612,0.318218
831.000000,0.303440,0.290626,0.267056,0.260011,0.324535
832.000000,0.315082,0.297812,0.271139,0.263647,0.332544
833.000000,0.321579,0.303328,0.274901,0.266227,0.316864
834.000000,0.324151,0.306723,0.279069,0.269449,0.328596
835.000000,0.331371,0.313187,0.284546,0.273988,0.354315
836.000000,0.336966,0.320203,0.289538,0.277139,0.352510
837.000000,0.339628,0.327355,0.294969,0.279733,0.345854
838.000000,0.343237,0.332408,0.300175,0.281903,0.334913
839.000000,0.340756,0.332453,0.304337,0.284046,0.316187
840.000000,0.333469,0.332420,0.307879,0.285911,0.317879
841.000000,0.326678,0.331822,0.311224,0.288644,0.318556
842.000000,0.322076,0.330852,0.314332,0.291043,0.322843
843.000000,0.317135,0.330186,0.316757,0.293330,0.310209
844.000000,0.318579,0.329667,0.318195,0.295935,0.323407
845.000000,0.321218,0.327343,0.320265,0.298812,0.331077
846.000000,0.322143,0.324411,0.322307,0.301162,0.323181
847.000000,0.322504,0.322290,0.324822,0.304076,0.324647
848.000000,0.328257,0.322696,0.327552,0.307682,0.338973
849.000000,0.332544,0.325561,0.329007,0.311412,0.344839
850.000000,0.334913,0.328065,0.330243,0.314608,0.342922
851.000000,0.339853,0.330998,0.331410,0.317815,0.347885
852.000000,0.345065,0.333785,0.332318,0.320816,0.350705
853.000000,0.345809,0.337033,0.333610,0.323516,0.342696
854.000000,0.342583,0.337563,0.333615,0.324651,0.328708
855.000000,0.341568,0.338240,0.332792,0.326257,0.337845
856.000000,0.335950,0.337902,0.331156,0.327505,0.319797
857.000000,0.332363,0.338714,0.330502,0.329453,0.332769
858.000000,0.335544,0.340677,0.331686,0.331927,0.358601
859.000000,0.343147,0.342865,0.334213,0.333627,0.366723
860.000000,0.350006,0.345787,0.336926,0.335424,0.372138
861.000000,0.360677,0.348314,0.339656,0.337045,0.373153
862.000000,0.369588,0.350976,0.342380,0.338537,0.377327
863.000000,0.376875,0.356210,0.346622,0.341143,0.395037
864.000000,0.380259,0.361703,0.349633,0.342978,0.383644
865.000000,0.380936,0.365471,0.351856,0.343685,0.375522
866.000000,0.376627,0.368652,0.353277,0.343655,0.351607
867.000000,0.368889,0.369239,0.353976,0.343414,0.338635
868.000000,0.356887,0.366881,0.353779,0.343418,0.335025
869.000000,0.348607,0.364433,0.353649,0.344287,0.342245
870.000000,0.339019,0.359977,0.352882,0.344610,0.327580
871.000000,0.336086,0.356356,0.352335,0.345223,0.336943
872.000000,0.336853,0.352871,0.351923,0.345877,0.342470
873.000000,0.339447,0.348167,0.352188,0.347137,0.347998
874.000000,0.340823,0.344715,0.353209,0.347994,0.349126
875.000000,0.349667,0.344343,0.354907,0.349351,0.371799
876.000000,0.352848,0.344467,0.356560,0.350340,0.352848
877.000000,0.350525,0.343689,0.356464,0.350547,0.330852
878.000000,0.352262,0.345854,0.356368,0.351137,0.356684
879.000000,0.356277,0.348550,0.356492,0.351950,0.369205
880.000000,0.355375,0.352521,0.356249,0.352762,0.367287
881.000000,0.359842,0.356345,0.356351,0.353672,0.375183
882.000000,0.365550,0.358037,0.355454,0.353961,0.359391
883.000000,0.366475,0.359368,0.353768,0.354582,0.361309
884.000000,0.364264,0.360271,0.352493,0.355563,0.358150
885.000000,0.364693,0.360034,0.352188,0.356616,0.369430
886.000000,0.363745,0.361794,0.353130,0.358304,0.370446
887.000000,0.368302,0.366926,0.355307,0.359951,0.382177
888.000000,0.369904,0.368190,0.357022,0.360308,0.369318
889.000000,0.373604,0.368934,0.358742,0.360639,0.376650
890.000000,0.375296,0.369994,0.361258,0.360831,0.377891
891.000000,0.376763,0.370254,0.363299,0.360985,0.377778
892.000000,0.373153,0.370728,0.364382,0.360545,0.364129
893.000000,0.371709,0.370807,0.365087,0.359447,0.362098
894.000000,0.366633,0.370118,0.365195,0.358368,0.351269
895.000000,0.362143,0.368720,0.364377,0.357699,0.355443
896.000000,0.356232,0.366497,0.364146,0.357586,0.348223
897.000000,0.351540,0.362346,0.364636,0.357654,0.340666
898.000000,0.345200,0.358455,0.363322,0.357500,0.330400
899.000000,0.340756,0.353694,0.361314,0.357060,0.329047
900.000000,0.335003,0.348573,0.359284,0.357030,0.326678
901.000000,0.329385,0.342809,0.356531,0.356469,0.320135
902.000000,0.325595,0.338567,0.354647,0.355777,0.321715
903.000000,0.328686,0.336943,0.353875,0.355706,0.345854
904.000000,0.331754,0.336255,0.353187,0.355548,0.344388
905.000000,0.332634,0.333818,0.351269,0.354191,0.331077
906.000000,0.335544,0.332465,0.349481,0.353585,0.334687
907.000000,0.336740,0.331168,0.346757,0.353480,0.327693
908.000000,0.332611,0.330649,0.344552,0.352431,0.325212
909.000000,0.329340,0.330547,0.342121,0.351058,0.328032
910.000000,0.329679,0.331156,0.339865,0.349908,0.332769
911.000000,0.332025,0.333785,0.338297,0.348949,0.346418
912.000000,0.336898,0.336819,0.337693,0.348705,0.352059
913.000000,0.341839,0.337225,0.337084,0.348325,0.349915
914.000000,0.349961,0.339650,0.337953,0.348675,0.368641
915.000000,0.355984,0.342831,0.338325,0.348456,0.362888
916.000000,0.356999,0.344512,0.338488,0.347825,0.351495
917.000000,0.357428,0.347163,0.339165,0.346892,0.354202
918.000000,0.356616,0.349227,0.339938,0.346110,0.345854
919.000000,0.353367,0.351664,0.341105,0.345302,0.352397
920.000000,0.352307,0.354146,0.342651,0.344625,0.357586
921.000000,0.353841,0.355420,0.344602,0.344005,0.359165
922.000000,0.353390,0.355409,0.346114,0.343598,0.351946
923.000000,0.354382,0.355499,0.346362,0.343222,0.350818
924.000000,0.353029,0.353198,0.346424,0.343034,0.345629
925.000000,0.351788,0.352047,0.347439,0.342899,0.351382
926.000000,0.352397,0.353119,0.348816,0.343365,0.362211
927.000000,0.357180,0.355285,0.351224,0.344538,0.375860
928.000000,0.365234,0.359808,0.354518,0.346561,0.391089
929.000000,0.373514,0.363271,0.357468,0.348494,0.387028
930.000000,0.381726,0.366757,0.360451,0.350686,0.392442
931.000000,0.385178,0.368787,0.362104,0.352664,0.379470
932.000000,0.384884,0.371032,0.363221,0.354420,0.374394
933.000000,0.381703,0.373469,0.364484,0.355398,0.375183
934.000000,0.379289,0.376402,0.364800,0.356417,0.374958
935.000000,0.375747,0.378737,0.365392,0.357872,0.374732
936.000000,0.373175,0.379177,0.366148,0.358936,0.366610
937.000000,0.373288,0.379086,0.367186,0.360511,0.374958
938.000000,0.373830,0.377766,0.368787,0.362267,0.377891
939.000000,0.372160,0.375725,0.369498,0.363553,0.366610
940.000000,0.370400,0.373074,0.369915,0.364659,0.365933
941.000000,0.368686,0.370931,0.369859,0.365046,0.358037
942.000000,0.369340,0.371314,0.371173,0.365918,0.378229
943.000000,0.369521,0.371675,0.372572,0.366881,0.378793
944.000000,0.375973,0.374067,0.375234,0.367889,0.398872
945.000000,0.381478,0.375939,0.377338,0.368908,0.393457
946.000000,0.389081,0.378883,0.379030,0.370393,0.396052
947.000000,0.393367,0.381354,0.380220,0.371908,0.399662
948.000000,0.396300,0.382910,0.380338,0.373495,0.393457
949.000000,0.393841,0.384907,0.380316,0.374634,0.386576
950.000000,0.389667,0.385572,0.379323,0.375134,0.372589
951.000000,0.384253,0.386667,0.378799,0.375462,0.368979
952.000000,0.379989,0.386678,0.378996,0.376341,0.378342
953.000000,0.376244,0.386272,0.378973,0.377139,0.374732
954.000000,0.374619,0.384230,0.379148,0.378233,0.378455
955.000000,0.375454,0.382561,0.379250,0.379079,0.376763
956.000000,0.378477,0.381365,0.380124,0.379808,0.384095
957.000000,0.380981,0.380485,0.380919,0.380308,0.390863
958.000000,0.384546,0.380395,0.381653,0.380357,0.392555
959.000000,0.387366,0.380993,0.382950,0.380541,0.392555
960.000000,0.390750,0.383102,0.384337,0.380583,0.393683
961.000000,0.390637,0.384557,0.385612,0.380718,0.383531
962.000000,0.389735,0.385358,0.386018,0.381117,0.386351
963.000000,0.386576,0.385561,0.385917,0.381169,0.376763
964.000000,0.382064,0.384715,0.384473,0.381004,0.369994
965.000000,0.376086,0.383418,0.382989,0.380639,0.363790
966.000000,0.369994,0.380316,0.380840,0.380188,0.353074
967.000000,0.361196,0.375465,0.377975,0.379101,0.342358
968.000000,0.356232,0.371404,0.375900,0.378237,0.351946
969.000000,0.351269,0.366667,0.373830,0.377522,0.345178
970.000000,0.350705,0.363395,0.373249,0.377357,0.360970
971.000000,0.352623,0.361309,0.372933,0.377511,0.362662
972.000000,0.358940,0.360068,0.372713,0.377368,0.373942
973.000000,0.363903,0.360068,0.372814,0.377300,0.376763
974.000000,0.370107,0.360688,0.372702,0.376544,0.376199
975.000000,0.371461,0.361083,0.372250,0.375687,0.367738
976.000000,0.374732,0.363677,0.371997,0.375119,0.379019
977.000000,0.374619,0.366779,0.371122,0.374243,0.373378
978.000000,0.376875,0.370389,0.370897,0.374063,0.388043
979.000000,0.379131,0.374619,0.370643,0.374093,0.387479
980.000000,0.386012,0.378737,0.371066,0.375078,0.402143
981.000000,0.389058,0.381895,0.371602,0.375920,0.394247
982.000000,0.393683,0.384151,0.372109,0.376526,0.396503
983.000000,0.396390,0.386633,0.373350,0.377421,0.401579
984.000000,0.396503,0.387817,0.374253,0.377740,0.388043
985.000000,0.390525,0.388268,0.374676,0.377590,0.372250
986.000000,0.393006,0.391032,0.377355,0.378342,0.406655
987.000000,0.395826,0.394755,0.380767,0.379000,0.410603
988.000000,0.398646,0.397518,0.383954,0.379771,0.415680
989.000000,0.406204,0.401354,0.387986,0.380880,0.425832
990.000000,0.417597,0.404061,0.391399,0.382064,0.429216
991.000000,0.424027,0.408517,0.395206,0.383907,0.438804
992.000000,0.432262,0.414044,0.399098,0.386088,0.451777
993.000000,0.437902,0.418274,0.402453,0.388325,0.443880
994.000000,0.440948,0.423576,0.405697,0.390694,0.441060
995.000000,0.444896,0.431246,0.409757,0.393533,0.448957
996.000000,0.445572,0.434800,0.412916,0.396503,0.442188
997.000000,0.444896,0.438579,0.416667,0.400038,0.448393
998.000000,0.448957,0.443429,0.420474,0.403779,0.464185
999.000000,0.454484,0.447716,0.424535,0.407896,0.468697
1000.000000,0.456966,0.450931,0.427496,0.411243,0.461365
1001.000000,0.462493,0.454033,0.431275,0.414815,0.469825
1002.000000,0.467118,0.456007,0.435025,0.418067,0.471517
1003.000000,0.469825,0.459391,0.438832,0.421433,0.477721
1004.000000,0.472081,0.463283,0.443429,0.424892,0.479977
1005.000000,0.474224,0.465595,0.448421,0.428370,0.472081
1006.000000,0.474563,0.468528,0.451664,0.431453,0.471517
1007.000000,0.474450,0.470784,0.454681,0.434706,0.470953
1008.000000,0.474337,0.472081,0.457755,0.437676,0.477157
1009.000000,0.474901,0.473491,0.460603,0.440854,0.482798
1010.000000,0.474901,0.474563,0.462747,0.443185,0.472081
1011.000000,0.474112,0.474337,0.464185,0.445629,0.467569
1012.000000,0.471066,0.472758,0.464382,0.447603,0.455725
1013.000000,0.465087,0.469712,0.464552,0.449126,0.447265
1014.000000,0.459560,0.467231,0.465257,0.451363,0.455161
1015.000000,0.454822,0.464862,0.465228,0.453901,0.448393
1016.000000,0.451777,0.462944,0.465736,0.455424,0.452341
1017.000000,0.453469,0.462267,0.466526,0.457210,0.464185
1018.000000,0.455161,0.460124,0.466103,0.458545,0.455725
1019.000000,0.455499,0.457530,0.465510,0.459579,0.456853
1020.000000,0.457191,0.456007,0.465285,0.460500,0.456853
1021.000000,0.456402,0.454089,0.464213,0.460820,0.448393
1022.000000,0.455725,0.454597,0.463677,0.461121,0.460801
1023.000000,0.457868,0.456514,0.463113,0.461873,0.466441
1024.000000,0.460801,0.458150,0.462690,0.462888,0.471517
1025.000000,0.461478,0.459334,0.462098,0.463264,0.460237
1026.000000,0.461365,0.458883,0.460914,0.463452,0.447829
1027.000000,0.458770,0.457248,0.459757,0.463433,0.447829
1028.000000,0.456176,0.457022,0.458573,0.463076,0.453469
1029.000000,0.454033,0.457417,0.457473,0.462813,0.460801
1030.000000,0.456966,0.459222,0.457614,0.463264,0.474901
1031.000000,0.459786,0.460575,0.457332,0.463001,0.461929
1032.000000,0.458883,0.458827,0.456712,0.462061,0.443316
1033.000000,0.456966,0.456571,0.456543,0.460933,0.443880
1034.000000,0.455161,0.454597,0.456373,0.459992,0.451777
1035.000000,0.450649,0.453807,0.456571,0.459334,0.452341
1036.000000,0.448731,0.454258,0.456571,0.458695,0.452341
1037.000000,0.452002,0.455443,0.456345,0.458319,0.459673
1038.000000,0.454597,0.455781,0.456402,0.457642,0.456853
1039.000000,0.454258,0.454710,0.456063,0.456552,0.450085
1040.000000,0.454146,0.452397,0.455809,0.455875,0.451777
1041.000000,0.453243,0.450987,0.455781,0.455217,0.447829
1042.000000,0.448505,0.450254,0.454540,0.454559,0.435984
1043.000000,0.445798,0.450197,0.453384,0.454428,0.443316
1044.000000,0.437563,0.445911,0.450254,0.452886,0.408911
1045.000000,0.427750,0.440948,0.447377,0.451363,0.402707
1046.000000,0.417484,0.435364,0.444811,0.449502,0.396503
1047.000000,0.411732,0.430118,0.442781,0.447603,0.407219
1048.000000,0.405753,0.425776,0.440778,0.446193,0.413424
1049.000000,0.406204,0.421884,0.438297,0.444670,0.411168
1050.000000,0.406881,0.417315,0.434856,0.442978,0.406091
1051.000000,0.407107,0.412296,0.431641,0.441286,0.397631
1052.000000,0.401579,0.406655,0.428455,0.438579,0.379583
1053.000000,0.394473,0.400113,0.425155,0.435627,0.377891
1054.000000,0.388720,0.397462,0.421686,0.432657,0.382403
1055.000000,0.384320,0.395601,0.418274,0.430118,0.384095
1056.000000,0.379470,0.393288,0.414326,0.427637,0.373378
1057.000000,0.381275,0.391427,0.410773,0.425663,0.388607
1058.000000,0.383644,0.389058,0.407417,0.423538,0.389735
1059.000000,0.385223,0.386971,0.404428,0.421188,0.390299
1060.000000,0.385674,0.384997,0.401156,0.418237,0.386351
1061.000000,0.387140,0.383305,0.397800,0.415529,0.380711
1062.000000,0.384546,0.382910,0.394783,0.413273,0.375635
1063.000000,0.382403,0.383023,0.391568,0.411111,0.379019
1064.000000,0.379019,0.382121,0.389791,0.408498,0.373378
1065.000000,0.376650,0.381162,0.388381,0.405903,0.374506
1066.000000,0.376199,0.381669,0.387479,0.403440,0.378455
1067.000000,0.381049,0.382798,0.387112,0.401448,0.399887
1068.000000,0.385223,0.383813,0.386435,0.399549,0.399887
1069.000000,0.391765,0.385392,0.386182,0.398082,0.406091
1070.000000,0.397406,0.387028,0.386012,0.396447,0.402707
1071.000000,0.402256,0.389227,0.386266,0.394943,0.402707
1072.000000,0.401128,0.391089,0.386999,0.393551,0.394247
1073.000000,0.401354,0.393288,0.388156,0.392141,0.401015
1074.000000,0.400338,0.396052,0.389086,0.391878,0.401015
1075.000000,0.399774,0.398590,0.389876,0.391784,0.399887
1076.000000,0.398759,0.400508,0.391089,0.391822,0.397631
1077.000000,0.399662,0.400395,0.391596,0.391540,0.398759
1078.000000,0.397631,0.399492,0.391653,0.390788,0.390863
1079.000000,0.395826,0.398082,0.391737,0.390149,0.391991
1080.000000,0.393345,0.396560,0.391794,0.389528,0.387479
1081.000000,0.390073,0.394416,0.391822,0.388983,0.381275
1082.000000,0.385787,0.392724,0.391906,0.388908,0.377327
1083.000000,0.383305,0.390468,0.391878,0.388926,0.378455
1084.000000,0.381162,0.388494,0.392273,0.388889,0.381275
1085.000000,0.381162,0.387253,0.392922,0.389002,0.387479
1086.000000,0.382516,0.386294,0.393401,0.389491,0.388043
1087.000000,0.382177,0.383982,0.392188,0.389058,0.375635
1088.000000,0.381613,0.382459,0.390976,0.388588,0.375635
1089.000000,0.380711,0.380936,0.389509,0.388137,0.376763
1090.000000,0.379244,0.380203,0.388381,0.387930,0.380147
1091.000000,0.374732,0.378624,0.386520,0.387422,0.365482
1092.000000,0.369656,0.375917,0.384320,0.386576,0.350254
1093.000000,0.367174,0.374394,0.382431,0.386050,0.363226
1094.000000,0.363903,0.372307,0.380400,0.385618,0.360406
1095.000000,0.358037,0.368641,0.377947,0.384828,0.350818
1096.000000,0.356571,0.365651,0.375973,0.384151,0.358150
1097.000000,0.358827,0.364241,0.374112,0.382873,0.361534
1098.000000,0.358376,0.362775,0.372617,0.381575,0.360970
1099.000000,0.360068,0.361985,0.371461,0.380335,0.368866
1100.000000,0.363565,0.360801,0.370502,0.379188,0.368302
1101.000000,0.365031,0.360801,0.369712,0.377947,0.365482
1102.000000,0.365144,0.361985,0.368951,0.376875,0.362098
1103.000000,0.367625,0.363001,0.368697,0.375954,0.373378
1104.000000,0.368979,0.364523,0.368415,0.375108,0.375635
1105.000000,0.370897,0.367231,0.367936,0.374375,0.377891
1106.000000,0.373378,0.369205,0.367428,0.373717,0.377891
1107.000000,0.375747,0.370446,0.367343,0.372890,0.373942
1108.000000,0.374958,0.371292,0.367033,0.372175,0.369430
1109.000000,0.370784,0.369882,0.365933,0.370934,0.354766
1110.000000,0.365144,0.368020,0.364411,0.369675,0.349690
1111.000000,0.360406,0.366892,0.363847,0.368772,0.354202
1112.000000,0.356345,0.366046,0.364016,0.367983,0.353638
1113.000000,0.353074,0.364016,0.363508,0.367137,0.353074
1114.000000,0.347208,0.358996,0.361760,0.365275,0.325437
1115.000000,0.336717,0.350931,0.359081,0.362267,0.297236
1116.000000,0.325437,0.342922,0.356063,0.359259,0.297800
1117.000000,0.315736,0.336041,0.353243,0.356909,0.305133
1118.000000,0.308629,0.330852,0.351072,0.354973,0.317541
1119.000000,0.308517,0.327862,0.348872,0.353243,0.324873
1120.000000,0.307727,0.322222,0.345121,0.350348,0.293288
1121.000000,0.304343,0.314890,0.340891,0.347528,0.280880
1122.000000,0.300508,0.308122,0.337084,0.345384,0.285956
1123.000000,0.293063,0.300846,0.332431,0.342621,0.280316
1124.000000,0.282459,0.295488,0.327242,0.339669,0.271856
1125.000000,0.275014,0.291371,0.321151,0.336511,0.256063
1126.000000,0.272081,0.288212,0.315567,0.333446,0.266215
1127.000000,0.270164,0.285336,0.310688,0.330607,0.276368
1128.000000,0.270728,0.281895,0.306373,0.328013,0.283136
1129.000000,0.275691,0.279075,0.303469,0.325606,0.296672
1130.000000,0.284828,0.279921,0.301072,0.323388,0.301748
1131.000000,0.291822,0.281951,0.298421,0.321245,0.301184
1132.000000,0.297462,0.283813,0.295967,0.319327,0.304569
1133.000000,0.302200,0.286464,0.293655,0.317108,0.306825
1134.000000,0.301636,0.288663,0.292076,0.314382,0.293852
1135.000000,0.299267,0.292047,0.291709,0.311450,0.289904
1136.000000,0.296447,0.294134,0.291173,0.308423,0.287084
1137.000000,0.292837,0.295149,0.290243,0.305509,0.286520
1138.000000,0.289453,0.295826,0.288861,0.302858,0.289904
1139.000000,0.289340,0.295488,0.287281,0.300808,0.293288
1140.000000,0.291145,0.295206,0.287563,0.299116,0.298928
1141.000000,0.295093,0.295770,0.288861,0.297537,0.306825
1142.000000,0.296672,0.294755,0.289284,0.295563,0.294416
1143.000000,0.298364,0.293909,0.290186,0.293739,0.298364
1144.000000,0.299154,0.294247,0.291455,0.292799,0.297236
1145.000000,0.298590,0.294867,0.293457,0.292762,0.296108
1146.000000,0.296108,0.295601,0.294867,0.292649,0.294416
1147.000000,0.296221,0.296447,0.295798,0.292311,0.294980
1148.000000,0.296221,0.297293,0.296560,0.291671,0.298364
1149.000000,0.295995,0.297575,0.296531,0.290713,0.296108
1150.000000,0.297800,0.298195,0.296701,0.291107,0.305133
1151.000000,0.299944,0.298026,0.296898,0.291916,0.305133
1152.000000,0.301974,0.299098,0.296926,0.292555,0.305133
1153.000000,0.302425,0.299323,0.296616,0.293232,0.300620
1154.000000,0.302651,0.299323,0.296785,0.294078,0.297236
1155.000000,0.299380,0.298590,0.296729,0.295168,0.288776
1156.000000,0.295883,0.297913,0.296757,0.295883,0.287648
1157.000000,0.291822,0.296898,0.296672,0.296165,0.284828
1158.000000,0.287422,0.294924,0.296108,0.296014,0.278624
1159.000000,0.282459,0.292555,0.295065,0.295206,0.272420
1160.000000,0.278511,0.288945,0.293570,0.294115,0.269036
1161.000000,0.274563,0.285223,0.291624,0.293006,0.267908
1162.000000,0.271292,0.281557,0.290327,0.291803,0.268472
1163.000000,0.268810,0.278116,0.288720,0.290449,0.266215
1164.000000,0.265651,0.274055,0.286689,0.289208,0.256627
1165.000000,0.263621,0.271066,0.284828,0.288174,0.258883
1166.000000,0.262719,0.268641,0.283277,0.287385,0.263395
1167.000000,0.261703,0.266497,0.281698,0.286614,0.263395
1168.000000,0.262944,0.265877,0.280400,0.286031,0.272420
1169.000000,0.267908,0.266779,0.279667,0.285636,0.281444
1170.000000,0.271743,0.267682,0.278314,0.284941,0.278060
1171.000000,0.274676,0.268697,0.276960,0.283982,0.278060
1172.000000,0.277496,0.269600,0.275578,0.283418,0.277496
1173.000000,0.280316,0.271630,0.274873,0.283023,0.286520
1174.000000,0.280880,0.274394,0.274224,0.282591,0.284264
1175.000000,0.283249,0.277496,0.274281,0.282384,0.289904
1176.000000,0.284151,0.279413,0.274027,0.281989,0.282572
1177.000000,0.287084,0.282290,0.274394,0.281895,0.292160
1178.000000,0.289566,0.284941,0.275409,0.281914,0.298928
1179.000000,0.292837,0.286858,0.276819,0.282064,0.300620
1180.000000,0.293739,0.288494,0.278088,0.281707,0.294416
1181.000000,0.295770,0.289961,0.279329,0.281293,0.292724
1182.000000,0.297575,0.292329,0.280964,0.281162,0.301184
1183.000000,0.299380,0.294473,0.283051,0.281406,0.307953
1184.000000,0.302200,0.297518,0.285956,0.281989,0.314721
1185.000000,0.305697,0.299718,0.288607,0.282760,0.311901
1186.000000,0.309757,0.302764,0.291089,0.283606,0.313029
1187.000000,0.310998,0.304287,0.293288,0.284358,0.307389
1188.000000,0.309870,0.304625,0.294783,0.285148,0.302312
1189.000000,0.307163,0.304681,0.295770,0.286106,0.301184
1190.000000,0.307050,0.306373,0.297434,0.287516,0.311337
1191.000000,0.308404,0.309081,0.299521,0.289246,0.319797
1192.000000,0.311224,0.311111,0.301720,0.291013,0.321489
1193.000000,0.315849,0.312860,0.303666,0.292987,0.325437
1194.000000,0.320925,0.314044,0.305781,0.295319,0.326565
1195.000000,0.323519,0.315285,0.307501,0.297500,0.324309
1196.000000,0.324422,0.316413,0.309588,0.299530,0.324309
1197.000000,0.326227,0.318725,0.311506,0.301767,0.330513
1198.000000,0.325099,0.320474,0.312549,0.303346,0.319797
1199.000000,0.324535,0.322730,0.313706,0.304757,0.323745
1200.000000,0.324309,0.323914,0.315144,0.306261,0.323181
1201.000000,0.324196,0.324309,0.316695,0.307783,0.323745
1202.000000,0.323519,0.324873,0.317992,0.309438,0.327129
1203.000000,0.324873,0.324986,0.318923,0.310773,0.326565
1204.000000,0.325099,0.324817,0.319430,0.312126,0.324873
1205.000000,0.325212,0.324760,0.320023,0.313254,0.323745
1206.000000,0.323407,0.323801,0.320107,0.314326,0.314721
1207.000000,0.319120,0.321320,0.320023,0.314777,0.305697
1208.000000,0.314608,0.319741,0.320107,0.314946,0.304005
1209.000000,0.310209,0.317654,0.320192,0.315022,0.302876
1210.000000,0.305471,0.315341,0.319628,0.315210,0.300056
1211.000000,0.300620,0.312014,0.318161,0.315134,0.290468
1212.000000,0.297800,0.308460,0.316667,0.314815,0.291596
1213.000000,0.293514,0.304061,0.314523,0.313969,0.282572
1214.000000,0.289679,0.299944,0.312380,0.312935,0.283700
1215.000000,0.287761,0.296616,0.310688,0.312220,0.290468
1216.000000,0.288325,0.294473,0.309137,0.311562,0.293288
1217.000000,0.288776,0.293288,0.307304,0.311111,0.293852
1218.000000,0.293063,0.293288,0.306514,0.311168,0.304005
1219.000000,0.296560,0.293119,0.305386,0.311168,0.301184
1220.000000,0.298364,0.293063,0.304202,0.310773,0.299492
1221.000000,0.299154,0.293739,0.302876,0.310021,0.297236
1222.000000,0.300620,0.294698,0.301579,0.309344,0.301184
1223.000000,0.298252,0.295657,0.299859,0.308235,0.292160
1224.000000,0.295431,0.295995,0.297970,0.306919,0.287084
1225.000000,0.292047,0.295206,0.295911,0.305527,0.282572
1226.000000,0.285392,0.292273,0.293373,0.303516,0.263959
1227.000000,0.276706,0.288663,0.290976,0.301090,0.257755
1228.000000,0.268810,0.283531,0.288409,0.298853,0.252679
1229.000000,0.263057,0.279244,0.286182,0.296672,0.258319
1230.000000,0.257304,0.274676,0.283869,0.294360,0.253807
1231.000000,0.256063,0.270728,0.282234,0.292160,0.257755
1232.000000,0.255725,0.266215,0.280457,0.289791,0.256063
1233.000000,0.257530,0.263170,0.279413,0.287629,0.261703
1234.000000,0.257868,0.260462,0.278229,0.285467,0.260011
1235.000000,0.257755,0.257530,0.276368,0.283117,0.253243
1236.000000,0.257078,0.256571,0.274422,0.281105,0.254371
1237.000000,0.257078,0.256402,0.272532,0.279451,0.256063
1238.000000,0.258883,0.258206,0.270869,0.278342,0.270728
1239.000000,0.262493,0.260180,0.269712,0.277515,0.278060
1240.000000,0.268810,0.263283,0.268979,0.277007,0.284828
1241.000000,0.274337,0.265708,0.268218,0.276725,0.282008
1242.000000,0.278285,0.267682,0.266949,0.276199,0.275804
1243.000000,0.280993,0.269938,0.266554,0.276255,0.284264
1244.000000,0.283474,0.272984,0.266723,0.276481,0.290468
