0.000000,0.789304,0.784687,0.756042,0.742348,0.810708
1.000000,0.792826,0.787776,0.761144,0.745801,0.806027
2.000000,0.800257,0.792610,0.766998,0.749296,0.816091
3.000000,0.806764,0.794874,0.771401,0.752516,0.809011
4.000000,0.812475,0.798953,0.776919,0.755805,0.820538
5.000000,0.815810,0.802557,0.782057,0.759391,0.827384
6.000000,0.820515,0.806671,0.786951,0.763171,0.829549
7.000000,0.823593,0.811925,0.792086,0.767111,0.831480
8.000000,0.826834,0.816799,0.796714,0.770698,0.825219
9.000000,0.826729,0.819602,0.799702,0.773794,0.820012
10.000000,0.824073,0.819941,0.802314,0.777342,0.814102
11.000000,0.824318,0.822417,0.805097,0.781568,0.830778
12.000000,0.825056,0.824324,0.808467,0.786107,0.835167
13.000000,0.827092,0.826963,0.810919,0.789922,0.835401
14.000000,0.830919,0.828824,0.813888,0.794221,0.839146
15.000000,0.836594,0.830334,0.816445,0.798149,0.842481
16.000000,0.839204,0.831761,0.819216,0.801888,0.843827
17.000000,0.836009,0.830532,0.821229,0.804902,0.819193
18.000000,0.834008,0.830550,0.823675,0.807993,0.825395
19.000000,0.830287,0.830603,0.825102,0.810002,0.820538
20.000000,0.823136,0.829865,0.824903,0.811498,0.806729
21.000000,0.818865,0.829035,0.825726,0.813076,0.822469
22.000000,0.817624,0.826817,0.825571,0.814584,0.812990
23.000000,0.814476,0.824242,0.825603,0.815360,0.809655
24.000000,0.812253,0.821270,0.825047,0.816349,0.809421
25.000000,0.812370,0.817753,0.824043,0.816881,0.807314
26.000000,0.810404,0.814634,0.823198,0.817689,0.812639
27.000000,0.810884,0.814254,0.822393,0.818904,0.815389
28.000000,0.808637,0.811556,0.821053,0.819635,0.798420
29.000000,0.809549,0.810901,0.820752,0.820369,0.813985
30.000000,0.810755,0.811562,0.820714,0.820456,0.813341
31.000000,0.811352,0.810878,0.819956,0.820776,0.815623
32.000000,0.807092,0.808988,0.817902,0.820043,0.794090
33.000000,0.801311,0.804974,0.814608,0.818726,0.769514
34.000000,0.790743,0.800146,0.810708,0.816747,0.761147
35.000000,0.782926,0.796840,0.807297,0.814976,0.774254
36.000000,0.772288,0.791820,0.803227,0.812738,0.762434
37.000000,0.768742,0.787917,0.801085,0.810901,0.776360
38.000000,0.772428,0.786870,0.799213,0.809659,0.787946
39.000000,0.777788,0.784266,0.797583,0.808590,0.787946
40.000000,0.780702,0.781814,0.796688,0.807747,0.788824
41.000000,0.786893,0.779590,0.795234,0.806501,0.793388
42.000000,0.791036,0.779889,0.794438,0.805231,0.797074
43.000000,0.791960,0.782194,0.793584,0.803803,0.792569
44.000000,0.792908,0.785348,0.792747,0.802255,0.792686
45.000000,0.795869,0.788286,0.792563,0.800960,0.803628
46.000000,0.798432,0.792662,0.792241,0.799705,0.806202
47.000000,0.801849,0.796442,0.792180,0.799538,0.814160
48.000000,0.808953,0.800456,0.793663,0.799627,0.828087
49.000000,0.816864,0.804886,0.794576,0.800018,0.832241
50.000000,0.821498,0.808683,0.795249,0.800687,0.826799
51.000000,0.825383,0.811908,0.795749,0.800792,0.825629
52.000000,0.827408,0.814628,0.797259,0.801168,0.824283
53.000000,0.826811,0.817882,0.800038,0.801683,0.825102
54.000000,0.821030,0.818947,0.802147,0.801480,0.803335
55.000000,0.814792,0.818145,0.803215,0.801090,0.795611
56.000000,0.806355,0.815869,0.804266,0.800117,0.783441
57.000000,0.798362,0.812885,0.804664,0.799081,0.784318
58.000000,0.789479,0.808145,0.804301,0.798490,0.780690
59.000000,0.785559,0.803294,0.804090,0.797482,0.783733
60.000000,0.783441,0.799116,0.803900,0.796538,0.785020
61.000000,0.783207,0.794781,0.803344,0.795426,0.782270
62.000000,0.781662,0.790012,0.802320,0.794843,0.776594
63.000000,0.782224,0.785851,0.801867,0.795309,0.783499
64.000000,0.779637,0.782598,0.800772,0.795631,0.770802
65.000000,0.776466,0.779953,0.799049,0.795461,0.769163
66.000000,0.775249,0.779228,0.797548,0.795920,0.776185
67.000000,0.777519,0.779590,0.796238,0.796306,0.787946
68.000000,0.781861,0.782042,0.795094,0.796881,0.805208
69.000000,0.787150,0.783394,0.793344,0.797191,0.797250
70.000000,0.787139,0.781802,0.790459,0.796534,0.769105
71.000000,0.789362,0.782305,0.788543,0.796331,0.787303
72.000000,0.786717,0.782118,0.786065,0.795586,0.774722
73.000000,0.790275,0.786068,0.785960,0.796600,0.822996
74.000000,0.796524,0.791837,0.787218,0.797794,0.828496
75.000000,0.810696,0.798917,0.789435,0.799005,0.839965
76.000000,0.822692,0.806027,0.792627,0.800374,0.847279
77.000000,0.837414,0.812066,0.795828,0.801514,0.848332
78.000000,0.844740,0.817507,0.799775,0.802565,0.859626
79.000000,0.848648,0.822586,0.802990,0.803091,0.848040
80.000000,0.852709,0.831703,0.806752,0.804207,0.860269
81.000000,0.855448,0.839070,0.810688,0.805385,0.860971
82.000000,0.855705,0.846559,0.814339,0.806230,0.849620
83.000000,0.857542,0.851141,0.818604,0.807687,0.868812
84.000000,0.866144,0.857396,0.824617,0.810610,0.891047
85.000000,0.871691,0.862200,0.830559,0.813690,0.888005
86.000000,0.878806,0.867127,0.836577,0.817461,0.896548
87.000000,0.890439,0.873072,0.842569,0.821576,0.907782
88.000000,0.896805,0.877174,0.847341,0.825574,0.900644
89.000000,0.898970,0.882557,0.852572,0.829512,0.901872
90.000000,0.900667,0.886179,0.858941,0.833228,0.896489
91.000000,0.904868,0.891837,0.865453,0.837737,0.917554
92.000000,0.906425,0.898432,0.872496,0.842370,0.915565
93.000000,0.908332,0.902569,0.876855,0.846593,0.910181
94.000000,0.913844,0.906407,0.881902,0.851880,0.929432
95.000000,0.918350,0.909508,0.885854,0.856875,0.919017
96.000000,0.920843,0.912855,0.889991,0.862003,0.930018
97.000000,0.922106,0.914266,0.893669,0.866468,0.921884
98.000000,0.923640,0.915986,0.896580,0.870222,0.917847
99.000000,0.921287,0.917566,0.900061,0.874236,0.917671
100.000000,0.921603,0.919977,0.903078,0.879286,0.920597
101.000000,0.919450,0.920146,0.905992,0.883684,0.919251
102.000000,0.917999,0.920053,0.909242,0.888348,0.914628
103.000000,0.914195,0.918917,0.910743,0.890876,0.898830
104.000000,0.912218,0.916752,0.911580,0.893519,0.907782
105.000000,0.907806,0.914705,0.912106,0.895471,0.898537
106.000000,0.899485,0.909468,0.911161,0.896483,0.877648
107.000000,0.893587,0.905793,0.910029,0.897710,0.885138
108.000000,0.895120,0.904658,0.910322,0.899272,0.906495
109.000000,0.894102,0.903160,0.910363,0.901094,0.902692
110.000000,0.892159,0.899982,0.909980,0.902046,0.888824
111.000000,0.893283,0.896384,0.908265,0.902789,0.883265
112.000000,0.897964,0.895775,0.907914,0.904753,0.908543
113.000000,0.896688,0.895904,0.907411,0.905797,0.900117
114.000000,0.898841,0.896472,0.906612,0.906544,0.913458
115.000000,0.904307,0.898233,0.906469,0.907482,0.916150
116.000000,0.908075,0.900679,0.905073,0.907667,0.902106
117.000000,0.902001,0.899982,0.902888,0.906680,0.878174
118.000000,0.896232,0.896460,0.900559,0.905701,0.871270
119.000000,0.885196,0.892019,0.897589,0.904248,0.858280
120.000000,0.874968,0.889637,0.894810,0.903199,0.865009
121.000000,0.868917,0.888496,0.892440,0.901675,0.871855
122.000000,0.867689,0.884845,0.890310,0.900224,0.872030
123.000000,0.864775,0.880503,0.888204,0.898442,0.856700
124.000000,0.866834,0.876015,0.886243,0.896413,0.868578
125.000000,0.868297,0.871633,0.884933,0.894857,0.872323
126.000000,0.868988,0.868953,0.884816,0.893033,0.875307
127.000000,0.872955,0.870322,0.885152,0.892032,0.891867
128.000000,0.880936,0.872855,0.884658,0.891324,0.896606
129.000000,0.890404,0.878619,0.885319,0.891266,0.915916
130.000000,0.898549,0.883423,0.886530,0.891014,0.913049
131.000000,0.908426,0.888707,0.888602,0.891196,0.924693
132.000000,0.914640,0.893798,0.889321,0.891473,0.922937
133.000000,0.919040,0.899988,0.890246,0.892132,0.918607
134.000000,0.917063,0.903733,0.889874,0.892073,0.906027
135.000000,0.918022,0.908286,0.889959,0.892717,0.917847
136.000000,0.920328,0.914377,0.891665,0.894669,0.936220
137.000000,0.922001,0.918321,0.894321,0.896208,0.931305
138.000000,0.925208,0.922124,0.897490,0.897146,0.934640
139.000000,0.930228,0.923645,0.901132,0.898094,0.931129
140.000000,0.930486,0.924254,0.903839,0.899105,0.919134
141.000000,0.928999,0.924664,0.906685,0.900622,0.928789
142.000000,0.926600,0.924301,0.909049,0.900981,0.919310
143.000000,0.928286,0.926747,0.913367,0.902413,0.943066
144.000000,0.930532,0.930380,0.917057,0.903376,0.942364
145.000000,0.934465,0.932475,0.920380,0.904131,0.938795
146.000000,0.939181,0.934090,0.924233,0.905807,0.952370
147.000000,0.945325,0.935963,0.927142,0.908202,0.950029
148.000000,0.946167,0.937226,0.929675,0.910735,0.947279
149.000000,0.946600,0.938566,0.931106,0.913610,0.944529
150.000000,0.947361,0.940913,0.932583,0.916197,0.942598
151.000000,0.946273,0.942727,0.933695,0.918699,0.946928
152.000000,0.945489,0.945407,0.934854,0.921168,0.946109
153.000000,0.944845,0.945506,0.936126,0.924080,0.944061
154.000000,0.946413,0.946507,0.938444,0.926873,0.952370
155.000000,0.947911,0.947636,0.940056,0.929466,0.950088
156.000000,0.944330,0.945301,0.939696,0.931256,0.929023
157.000000,0.940702,0.943095,0.939529,0.932460,0.927970
158.000000,0.935401,0.940123,0.938675,0.933158,0.917554
159.000000,0.930965,0.938689,0.938628,0.933634,0.930193
160.000000,0.927150,0.937531,0.939222,0.934232,0.931012
161.000000,0.928765,0.936548,0.939637,0.934646,0.937098
162.000000,0.933037,0.936870,0.941138,0.935526,0.949327
163.000000,0.937086,0.936243,0.940875,0.936165,0.937800
164.000000,0.935670,0.933318,0.939912,0.936735,0.923113
165.000000,0.931750,0.929450,0.938543,0.936520,0.911410
166.000000,0.927115,0.927940,0.936621,0.935777,0.913926
167.000000,0.920059,0.926548,0.934822,0.935202,0.914043
168.000000,0.916477,0.926782,0.933452,0.934710,0.919895
169.000000,0.917858,0.926764,0.932727,0.934673,0.930018
170.000000,0.923487,0.927618,0.932575,0.935354,0.939555
171.000000,0.927068,0.927092,0.931820,0.935455,0.931831
172.000000,0.933423,0.926741,0.931805,0.936339,0.945816
173.000000,0.941030,0.928754,0.932499,0.936834,0.957929
174.000000,0.947443,0.932651,0.932984,0.937492,0.962083
175.000000,0.950135,0.936811,0.933130,0.937966,0.953013
176.000000,0.953868,0.940468,0.934204,0.937903,0.950497
177.000000,0.958034,0.945728,0.936138,0.938457,0.966647
178.000000,0.959965,0.950497,0.938640,0.939134,0.967583
179.000000,0.963932,0.955688,0.941226,0.940380,0.981919
180.000000,0.969924,0.960029,0.943824,0.941726,0.982972
181.000000,0.974418,0.964143,0.945617,0.942594,0.972967
182.000000,0.972335,0.965184,0.945963,0.942932,0.956232
183.000000,0.970123,0.965044,0.946899,0.943347,0.956524
184.000000,0.966413,0.965173,0.948912,0.943714,0.963370
185.000000,0.964845,0.967384,0.952098,0.944548,0.975132
186.000000,0.963663,0.969040,0.954754,0.945816,0.967057
187.000000,0.967923,0.970129,0.957929,0.947468,0.977531
188.000000,0.971831,0.970977,0.960737,0.949419,0.976068
189.000000,0.974172,0.970293,0.962990,0.950915,0.975073
190.000000,0.973985,0.969415,0.964722,0.952354,0.974195
191.000000,0.980573,0.972118,0.968130,0.954451,1.000000
192.000000,0.981568,0.974745,0.969965,0.955557,0.982504
193.000000,0.976887,0.974359,0.969702,0.956052,0.952662
194.000000,0.972019,0.973095,0.969134,0.956973,0.950731
195.000000,0.969959,0.971972,0.969678,0.958722,0.963897
196.000000,0.965102,0.972838,0.970939,0.960782,0.975717
197.000000,0.963019,0.972294,0.971211,0.962717,0.972089
198.000000,0.966144,0.971516,0.971246,0.964330,0.968286
199.000000,0.970521,0.971270,0.970781,0.965750,0.972616
200.000000,0.828789,0.899374,0.934394,0.942939,0.255237
201.000000,0.685067,0.825085,0.898602,0.920449,0.257109
202.000000,0.542317,0.752668,0.863707,0.897533,0.258338
203.000000,0.401358,0.683751,0.829055,0.874385,0.263487
204.000000,0.259040,0.614781,0.793938,0.851016,0.261030
205.000000,0.260497,0.544643,0.758307,0.828000,0.262522
206.000000,0.262300,0.473683,0.723261,0.805187,0.266121
207.000000,0.263552,0.402934,0.687614,0.781786,0.264599
208.000000,0.265132,0.333245,0.652380,0.758579,0.271387
209.000000,0.266074,0.262557,0.616913,0.734706,0.265740
210.000000,0.266987,0.263742,0.581558,0.710844,0.267086
211.000000,0.267229,0.264764,0.544925,0.687323,0.267335
212.000000,0.267984,0.265768,0.509218,0.664394,0.268373
213.000000,0.267341,0.266236,0.474993,0.641449,0.268169
214.000000,0.267674,0.266874,0.440827,0.618250,0.267408
215.000000,0.266814,0.266900,0.405772,0.594505,0.262785
216.000000,0.266466,0.266848,0.370266,0.571123,0.265594
217.000000,0.266085,0.267035,0.334985,0.547421,0.266472
218.000000,0.265848,0.266594,0.299920,0.523785,0.266984
219.000000,0.266381,0.267028,0.264792,0.500285,0.270070
220.000000,0.268119,0.267466,0.265604,0.476861,0.271475
221.000000,0.269096,0.267781,0.266273,0.452543,0.270480
222.000000,0.269824,0.267955,0.266861,0.428797,0.270114
223.000000,0.270483,0.268166,0.267201,0.406051,0.270275
224.000000,0.269775,0.268078,0.267476,0.383244,0.266530
225.000000,0.269114,0.268616,0.267758,0.360053,0.268169
226.000000,0.268786,0.268941,0.267894,0.336491,0.268841
227.000000,0.268654,0.269239,0.268137,0.313070,0.269456
228.000000,0.268762,0.269623,0.268109,0.289821,0.270816
229.000000,0.269447,0.269611,0.268319,0.266398,0.269953
230.000000,0.269664,0.269389,0.268427,0.266866,0.269251
231.000000,0.269628,0.269207,0.268494,0.267251,0.268666
232.000000,0.268885,0.268770,0.268362,0.267498,0.265740
233.000000,0.268250,0.268506,0.268336,0.267636,0.267642
234.000000,0.267443,0.268445,0.268261,0.267799,0.265916
235.000000,0.268549,0.269106,0.268861,0.268208,0.274781
236.000000,0.269444,0.269536,0.269239,0.268442,0.273142
237.000000,0.271109,0.269997,0.269618,0.268757,0.274064
238.000000,0.270933,0.269592,0.269607,0.268603,0.266764
239.000000,0.271559,0.269501,0.269556,0.268713,0.269046
240.000000,0.270120,0.269334,0.269361,0.268730,0.267583
241.000000,0.268856,0.269150,0.269179,0.268713,0.266823
242.000000,0.267759,0.269434,0.269102,0.268720,0.268578
243.000000,0.268599,0.269766,0.269136,0.268813,0.270963
244.000000,0.269002,0.270281,0.269363,0.268935,0.271065
245.000000,0.270085,0.270102,0.269604,0.269275,0.272996
246.000000,0.270992,0.269924,0.269730,0.269467,0.271358
247.000000,0.272156,0.269958,0.269977,0.269731,0.274400
248.000000,0.272990,0.270794,0.270193,0.270003,0.275132
249.000000,0.273716,0.271359,0.270430,0.270157,0.274693
250.000000,0.274260,0.272172,0.270753,0.270298,0.275717
251.000000,0.275477,0.273234,0.271192,0.270531,0.277443
252.000000,0.275875,0.274016,0.271725,0.270740,0.276390
253.000000,0.276261,0.274626,0.272196,0.270966,0.277063
254.000000,0.276185,0.274950,0.272616,0.271225,0.274312
255.000000,0.276126,0.275193,0.272648,0.271467,0.275424
256.000000,0.276071,0.275774,0.272849,0.271745,0.277165
257.000000,0.276416,0.276145,0.273051,0.272033,0.278116
258.000000,0.276761,0.276511,0.273653,0.272299,0.278789
259.000000,0.276831,0.276508,0.273934,0.272456,0.274664
260.000000,0.277592,0.276859,0.274516,0.272789,0.279228
261.000000,0.277952,0.277011,0.275123,0.273132,0.278964
262.000000,0.277235,0.276826,0.275421,0.273425,0.274532
263.000000,0.276913,0.276837,0.275731,0.273743,0.277180
264.000000,0.277569,0.277200,0.276075,0.274144,0.277940
265.000000,0.276480,0.277036,0.276115,0.274111,0.273786
266.000000,0.275363,0.276657,0.276216,0.274118,0.273376
267.000000,0.273587,0.275411,0.275778,0.273838,0.265652
268.000000,0.271750,0.274331,0.275421,0.273879,0.267993
269.000000,0.269535,0.273552,0.275030,0.273806,0.266867
270.000000,0.268376,0.272428,0.274644,0.273820,0.267993
271.000000,0.267730,0.271546,0.274279,0.273931,0.270143
272.000000,0.267952,0.270769,0.273798,0.273870,0.266764
273.000000,0.266103,0.268926,0.272882,0.273463,0.258748
274.000000,0.264585,0.267060,0.272130,0.273070,0.259274
275.000000,0.262835,0.265606,0.271321,0.272612,0.259245
276.000000,0.261153,0.264441,0.270549,0.272291,0.261732
277.000000,0.261205,0.264579,0.269995,0.272045,0.267028
278.000000,0.263265,0.264684,0.269508,0.271842,0.269046
279.000000,0.265582,0.265083,0.269318,0.271714,0.270860
280.000000,0.268081,0.265458,0.268943,0.271582,0.271738
281.000000,0.270515,0.265834,0.268690,0.271464,0.273903
282.000000,0.272376,0.266791,0.268780,0.271462,0.276331
283.000000,0.273160,0.268212,0.268569,0.271325,0.272967
284.000000,0.273716,0.269649,0.268354,0.271303,0.273640
285.000000,0.274593,0.271337,0.268471,0.271326,0.276126
286.000000,0.275363,0.272939,0.268690,0.271346,0.277750
287.000000,0.275252,0.273814,0.269196,0.271268,0.275775
288.000000,0.276472,0.274816,0.269750,0.271277,0.279067
289.000000,0.278245,0.275980,0.270532,0.271538,0.282504
290.000000,0.279687,0.277140,0.271299,0.271675,0.283338
291.000000,0.282013,0.278688,0.272261,0.272023,0.289380
292.000000,0.284511,0.279882,0.273336,0.272480,0.288268
293.000000,0.287270,0.281871,0.275042,0.273003,0.292861
294.000000,0.289149,0.283697,0.276673,0.273468,0.291896
295.000000,0.291036,0.285361,0.278349,0.274101,0.292774
296.000000,0.291697,0.286855,0.279897,0.274745,0.292686
297.000000,0.292645,0.288578,0.281196,0.275657,0.293008
298.000000,0.291858,0.289564,0.282190,0.276355,0.288926
299.000000,0.291176,0.290162,0.283071,0.277075,0.288487
300.000000,0.289649,0.290342,0.283741,0.277647,0.285138
301.000000,0.288040,0.289868,0.284278,0.278130,0.284640
302.000000,0.286770,0.289707,0.284794,0.278793,0.286659
303.000000,0.286902,0.289380,0.285625,0.279821,0.289585
304.000000,0.286302,0.288739,0.286218,0.280695,0.285489
305.000000,0.286249,0.287949,0.286655,0.281549,0.284874
306.000000,0.286407,0.287224,0.287039,0.282339,0.285430
307.000000,0.285603,0.286186,0.287382,0.282859,0.282636
308.000000,0.284116,0.285509,0.287537,0.283296,0.282153
309.000000,0.282724,0.284513,0.287338,0.283552,0.278525
310.000000,0.281200,0.283724,0.287033,0.283736,0.277253
311.000000,0.279936,0.283171,0.286520,0.283909,0.279111
312.000000,0.280009,0.282806,0.286257,0.284132,0.283002
313.000000,0.281109,0.282613,0.285996,0.284621,0.287654
314.000000,0.283116,0.282920,0.285829,0.285118,0.288561
315.000000,0.285410,0.283305,0.285627,0.285538,0.288721
316.000000,0.287446,0.283691,0.285457,0.285923,0.289292
317.000000,0.287332,0.283670,0.284928,0.286145,0.282431
318.000000,0.286121,0.283615,0.284562,0.286229,0.281597
319.000000,0.285658,0.284387,0.284450,0.286354,0.286249
320.000000,0.283490,0.284450,0.284087,0.286172,0.277882
321.000000,0.280582,0.284014,0.283593,0.285685,0.274751
322.000000,0.279263,0.283297,0.283051,0.285270,0.275834
323.000000,0.278101,0.282111,0.282362,0.284701,0.275790
324.000000,0.276919,0.281289,0.282104,0.284316,0.280339
325.000000,0.279699,0.281594,0.282450,0.284283,0.291779
326.000000,0.282250,0.281416,0.282553,0.284110,0.287507
327.000000,0.284532,0.281897,0.282784,0.283918,0.287244
328.000000,0.286805,0.282453,0.283034,0.283859,0.287156
329.000000,0.287648,0.282283,0.283335,0.283728,0.284552
330.000000,0.285752,0.282725,0.283588,0.283633,0.282300
331.000000,0.284272,0.283261,0.283637,0.283482,0.280105
332.000000,0.283288,0.283910,0.283604,0.283338,0.282329
333.000000,0.282504,0.284655,0.283383,0.283126,0.283236
334.000000,0.281954,0.284801,0.283045,0.283003,0.281802
335.000000,0.282598,0.284175,0.282885,0.283025,0.285518
336.000000,0.283888,0.284080,0.282748,0.283062,0.286556
337.000000,0.284614,0.283951,0.282924,0.283173,0.285957
338.000000,0.286112,0.284308,0.283381,0.283459,0.290726
339.000000,0.287177,0.284566,0.283425,0.283745,0.287127
340.000000,0.287598,0.285098,0.283912,0.284091,0.287624
341.000000,0.288625,0.286257,0.284759,0.284510,0.291691
342.000000,0.289280,0.286947,0.285429,0.284718,0.289233
343.000000,0.288642,0.287377,0.286016,0.284714,0.287537
344.000000,0.288163,0.287670,0.286235,0.284587,0.284728
345.000000,0.287794,0.287696,0.285935,0.284488,0.285781
346.000000,0.286811,0.287718,0.285899,0.284405,0.286776
347.000000,0.286214,0.287747,0.285849,0.284532,0.286249
348.000000,0.286393,0.287518,0.285913,0.284760,0.288429
349.000000,0.286896,0.287529,0.286047,0.284793,0.287244
350.000000,0.287920,0.287857,0.286477,0.285227,0.290901
351.000000,0.288528,0.287670,0.286963,0.285729,0.289819
352.000000,0.289865,0.288040,0.287493,0.286299,0.292934
353.000000,0.290986,0.288689,0.288033,0.286907,0.294032
354.000000,0.292519,0.289707,0.288689,0.287393,0.294909
355.000000,0.293531,0.290726,0.289211,0.287532,0.295963
356.000000,0.294585,0.291556,0.289637,0.287785,0.295085
357.000000,0.295641,0.292753,0.290250,0.288150,0.298215
358.000000,0.296273,0.293629,0.290573,0.288485,0.297191
359.000000,0.297244,0.294882,0.291205,0.288992,0.299766
360.000000,0.298063,0.295797,0.291827,0.289584,0.300059
361.000000,0.299257,0.296921,0.292295,0.290282,0.301053
362.000000,0.299766,0.297703,0.292872,0.290897,0.300761
363.000000,0.299889,0.298081,0.293385,0.291382,0.297806
364.000000,0.299702,0.298473,0.294090,0.291950,0.298830
365.000000,0.299087,0.298575,0.294650,0.292332,0.296987
366.000000,0.298125,0.298691,0.295124,0.292655,0.296240
367.000000,0.297537,0.298651,0.295702,0.293051,0.297820
368.000000,0.297431,0.298660,0.296145,0.293269,0.297279
369.000000,0.297513,0.298607,0.296744,0.293673,0.299239
370.000000,0.297905,0.298496,0.297147,0.294050,0.298947
371.000000,0.298057,0.298091,0.297506,0.294227,0.297001
372.000000,0.298315,0.297926,0.297815,0.294556,0.299108
373.000000,0.298128,0.297779,0.297930,0.294850,0.296343
374.000000,0.297975,0.297744,0.298109,0.295308,0.298479
375.000000,0.299672,0.298789,0.298682,0.296030,0.307431
376.000000,0.301378,0.299718,0.299204,0.296655,0.305530
377.000000,0.302504,0.300410,0.299530,0.297271,0.304740
378.000000,0.304722,0.301425,0.300042,0.297905,0.307431
379.000000,0.305992,0.301984,0.300295,0.298491,0.304827
380.000000,0.305009,0.302341,0.300418,0.298878,0.302516
381.000000,0.304705,0.303041,0.300566,0.299351,0.304008
382.000000,0.304435,0.303470,0.300698,0.299700,0.303394
383.000000,0.303815,0.304269,0.301024,0.300043,0.304330
384.000000,0.303704,0.304848,0.301296,0.300355,0.304272
385.000000,0.303341,0.304175,0.301482,0.300513,0.300702
386.000000,0.302750,0.303727,0.301722,0.300712,0.301053
387.000000,0.302838,0.303637,0.302023,0.300899,0.303833
388.000000,0.303283,0.303549,0.302487,0.301211,0.306554
389.000000,0.303505,0.303604,0.302794,0.301398,0.305383
390.000000,0.304839,0.304090,0.303215,0.301642,0.307373
391.000000,0.306161,0.304456,0.303749,0.301863,0.307665
392.000000,0.306840,0.304839,0.304154,0.302078,0.307226
393.000000,0.306641,0.304962,0.304615,0.302337,0.305559
394.000000,0.306618,0.305061,0.304955,0.302551,0.305266
395.000000,0.305120,0.304980,0.304577,0.302648,0.299883
396.000000,0.303400,0.304781,0.304254,0.302742,0.299064
397.000000,0.299988,0.303414,0.303525,0.302487,0.290170
398.000000,0.296922,0.301782,0.302665,0.302252,0.290228
399.000000,0.294564,0.300591,0.302098,0.302060,0.293476
400.000000,0.292578,0.298849,0.301469,0.301760,0.289950
401.000000,0.290951,0.297175,0.300816,0.301557,0.290930
402.000000,0.290647,0.295317,0.300078,0.301209,0.288648
403.000000,0.291179,0.294051,0.299506,0.301094,0.292891
404.000000,0.290758,0.292661,0.298861,0.300857,0.291369
405.000000,0.291141,0.291859,0.298419,0.300338,0.291867
406.000000,0.292054,0.291502,0.298141,0.300003,0.295494
407.000000,0.293297,0.291972,0.297693,0.299674,0.294865
408.000000,0.293900,0.292539,0.297161,0.299290,0.295904
409.000000,0.295240,0.292999,0.296795,0.299065,0.298069
410.000000,0.296735,0.293938,0.296393,0.298959,0.299342
411.000000,0.297343,0.294699,0.295937,0.298777,0.298537
412.000000,0.298370,0.295834,0.295576,0.298663,0.300000
413.000000,0.299037,0.296469,0.295260,0.298494,0.299239
414.000000,0.299763,0.297501,0.295081,0.298408,0.301697
415.000000,0.300298,0.298517,0.295188,0.298452,0.302019
416.000000,0.300638,0.298991,0.295246,0.298425,0.300234
417.000000,0.300743,0.299557,0.295764,0.298314,0.300527
418.000000,0.301123,0.300080,0.296310,0.298134,0.301141
419.000000,0.300819,0.300291,0.296645,0.297960,0.300176
420.000000,0.299959,0.300129,0.297033,0.297638,0.297718
421.000000,0.299485,0.300061,0.297380,0.297312,0.297864
422.000000,0.299052,0.299898,0.297866,0.297016,0.298362
423.000000,0.298484,0.299804,0.298136,0.296774,0.298303
424.000000,0.297390,0.299105,0.298303,0.296422,0.294705
425.000000,0.297080,0.298520,0.298518,0.296299,0.296167
426.000000,0.296437,0.297961,0.298476,0.296151,0.294646
427.000000,0.295184,0.297118,0.298337,0.296216,0.292101
428.000000,0.293953,0.296219,0.298150,0.296280,0.292145
429.000000,0.293678,0.295534,0.297913,0.296275,0.293329
430.000000,0.293496,0.295288,0.297708,0.296452,0.295260
431.000000,0.294005,0.295221,0.297641,0.296660,0.297191
432.000000,0.294918,0.295051,0.297474,0.296928,0.296665
433.000000,0.294909,0.294431,0.297117,0.296901,0.292101
434.000000,0.294254,0.293966,0.296535,0.296857,0.290053
435.000000,0.293874,0.293685,0.296102,0.296907,0.293359
436.000000,0.292188,0.293097,0.295529,0.296683,0.288765
437.000000,0.290913,0.292915,0.295017,0.296530,0.290287
438.000000,0.290848,0.292879,0.294549,0.296393,0.291779
439.000000,0.290398,0.292326,0.293930,0.296050,0.287800
440.000000,0.287654,0.290764,0.293026,0.295394,0.279637
441.000000,0.285828,0.289008,0.292115,0.294764,0.279637
442.000000,0.283897,0.287405,0.291228,0.294118,0.280632
443.000000,0.281504,0.286176,0.290304,0.293470,0.279813
444.000000,0.278484,0.284441,0.289203,0.292504,0.272703
445.000000,0.278005,0.282829,0.288257,0.291678,0.277238
446.000000,0.276507,0.281167,0.287132,0.290742,0.272147
447.000000,0.274084,0.278991,0.285953,0.289675,0.268520
448.000000,0.269789,0.275647,0.284263,0.288248,0.258338
449.000000,0.267203,0.272844,0.282585,0.286901,0.259772
450.000000,0.264564,0.271284,0.281024,0.285779,0.264043
451.000000,0.263335,0.269921,0.279465,0.284717,0.266004
452.000000,0.264412,0.269248,0.278327,0.283901,0.273903
453.000000,0.268678,0.269233,0.277705,0.283280,0.279666
454.000000,0.274078,0.270641,0.277541,0.283016,0.286776
455.000000,0.277946,0.271255,0.277042,0.282590,0.283382
456.000000,0.281767,0.272551,0.276859,0.282272,0.285108
457.000000,0.284283,0.274348,0.276669,0.282085,0.286483
458.000000,0.284699,0.276688,0.276167,0.281738,0.281744
459.000000,0.284511,0.279295,0.276069,0.281488,0.285840
460.000000,0.284023,0.280984,0.276134,0.281011,0.280939
461.000000,0.283280,0.282523,0.276222,0.280484,0.281393
462.000000,0.285573,0.284928,0.277088,0.280527,0.297952
463.000000,0.287847,0.286273,0.277753,0.280561,0.293110
464.000000,0.288748,0.286630,0.278635,0.280571,0.290345
465.000000,0.292607,0.288315,0.279785,0.280800,0.300234
466.000000,0.296621,0.289950,0.281251,0.281223,0.301463
467.000000,0.297563,0.291568,0.282958,0.281635,0.302662
468.000000,0.299292,0.293569,0.285129,0.281968,0.301755
469.000000,0.301276,0.295012,0.287153,0.282383,0.300263
470.000000,0.300884,0.296745,0.288865,0.283005,0.298274
471.000000,0.300638,0.298629,0.290576,0.283691,0.300234
472.000000,0.299760,0.298661,0.291795,0.284279,0.298274
473.000000,0.299479,0.299386,0.292829,0.284964,0.300351
474.000000,0.300427,0.300851,0.293740,0.286041,0.305003
475.000000,0.302405,0.301644,0.294980,0.287071,0.308163
476.000000,0.304576,0.302607,0.296279,0.288369,0.311088
477.000000,0.307929,0.303844,0.297706,0.289920,0.315038
478.000000,0.310925,0.305202,0.299386,0.291820,0.315331
479.000000,0.312943,0.306685,0.300848,0.293664,0.315097
480.000000,0.314783,0.308594,0.302670,0.295441,0.317364
481.000000,0.316586,0.310581,0.304605,0.297244,0.320099
482.000000,0.317905,0.312917,0.305789,0.298836,0.321635
483.000000,0.318950,0.314937,0.307161,0.300198,0.320553
484.000000,0.321249,0.317096,0.308974,0.301526,0.326594
485.000000,0.323227,0.319005,0.310325,0.302988,0.327253
486.000000,0.324403,0.320494,0.311551,0.304350,0.325980
487.000000,0.325272,0.321589,0.312717,0.305667,0.325980
488.000000,0.327188,0.323069,0.314135,0.307280,0.330135
489.000000,0.326480,0.323865,0.315275,0.308521,0.323054
490.000000,0.326156,0.324691,0.316643,0.310010,0.325629
491.000000,0.325272,0.324838,0.317709,0.311349,0.321562
492.000000,0.323891,0.324582,0.318749,0.312053,0.319075
493.000000,0.321252,0.324220,0.319579,0.312848,0.316940
494.000000,0.321668,0.324074,0.320585,0.314007,0.325132
495.000000,0.322955,0.324555,0.321780,0.315068,0.332066
496.000000,0.325319,0.325295,0.322895,0.316132,0.333382
497.000000,0.328678,0.326284,0.323937,0.317239,0.335869
498.000000,0.332894,0.327073,0.325071,0.318448,0.338019
499.000000,0.335486,0.328577,0.326221,0.319709,0.338092
500.000000,0.336831,0.329893,0.327292,0.321060,0.338795
501.000000,0.338166,0.331742,0.328290,0.322387,0.340053
502.000000,0.338768,0.333723,0.329152,0.323740,0.338882
503.000000,0.338795,0.335844,0.330032,0.325000,0.338151
504.000000,0.338291,0.336889,0.330481,0.326020,0.335576
505.000000,0.335916,0.336374,0.330464,0.326645,0.326916
506.000000,0.333125,0.335645,0.330470,0.327145,0.326097
507.000000,0.330860,0.334814,0.330549,0.327562,0.327560
508.000000,0.330486,0.334640,0.330856,0.328261,0.336279
509.000000,0.329772,0.334032,0.331304,0.328824,0.332007
510.000000,0.330582,0.333249,0.331571,0.329278,0.330968
511.000000,0.331776,0.332450,0.332096,0.329677,0.332066
512.000000,0.332665,0.331763,0.332743,0.330022,0.332007
513.000000,0.331589,0.331037,0.333441,0.330367,0.330895
514.000000,0.332589,0.331181,0.334035,0.330714,0.337010
515.000000,0.333148,0.331865,0.334119,0.330931,0.333762
516.000000,0.333452,0.332614,0.334130,0.331185,0.333587
517.000000,0.334740,0.333702,0.334258,0.331600,0.338444
518.000000,0.335208,0.333398,0.334019,0.331704,0.333236
519.000000,0.334459,0.333524,0.333778,0.332044,0.333265
520.000000,0.333815,0.333482,0.333365,0.332208,0.330544
521.000000,0.331972,0.332712,0.332581,0.332302,0.324371
522.000000,0.330322,0.332531,0.332147,0.332672,0.330193
523.000000,0.328882,0.332045,0.331541,0.332975,0.326039
524.000000,0.327683,0.331071,0.331126,0.333047,0.327267
525.000000,0.327958,0.330886,0.331376,0.333042,0.331919
526.000000,0.329626,0.330799,0.331706,0.333019,0.332709
527.000000,0.330983,0.330652,0.332177,0.333056,0.336981
528.000000,0.333318,0.331100,0.332249,0.333046,0.337712
529.000000,0.334225,0.330954,0.332239,0.332836,0.331802
530.000000,0.334617,0.331287,0.332384,0.332673,0.333879
531.000000,0.334845,0.332235,0.332474,0.332466,0.333850
532.000000,0.335626,0.333305,0.332918,0.332533,0.340886
533.000000,0.337352,0.335335,0.333690,0.332806,0.346343
534.000000,0.339991,0.337108,0.334089,0.333120,0.344997
535.000000,0.342332,0.338474,0.334680,0.333742,0.345582
536.000000,0.344462,0.339653,0.335226,0.334355,0.344500
537.000000,0.345518,0.340572,0.335612,0.334976,0.346167
538.000000,0.345439,0.341396,0.336248,0.335298,0.345948
539.000000,0.345711,0.342851,0.336902,0.335776,0.346358
540.000000,0.345547,0.343939,0.337613,0.336236,0.344763
541.000000,0.345647,0.345054,0.338645,0.336667,0.344997
542.000000,0.345278,0.345398,0.339351,0.337078,0.344324
543.000000,0.345632,0.345535,0.340435,0.337638,0.347718
544.000000,0.344980,0.345345,0.341227,0.337841,0.343095
545.000000,0.344880,0.345214,0.341844,0.338191,0.344266
546.000000,0.344766,0.345206,0.342430,0.338553,0.344427
547.000000,0.343765,0.344522,0.342547,0.338582,0.339321
548.000000,0.342180,0.343906,0.342651,0.338800,0.339789
549.000000,0.340170,0.342575,0.342713,0.338793,0.333046
550.000000,0.337197,0.341039,0.342489,0.338755,0.329403
551.000000,0.335515,0.340140,0.342597,0.339143,0.336015
552.000000,0.334330,0.339048,0.342223,0.339250,0.333397
553.000000,0.333686,0.337933,0.341734,0.339601,0.336571
554.000000,0.333566,0.336868,0.341107,0.339774,0.332446
555.000000,0.334871,0.336034,0.340624,0.339907,0.335927
556.000000,0.333839,0.334677,0.339941,0.339845,0.330851
557.000000,0.334175,0.334252,0.339387,0.339782,0.335079
558.000000,0.333110,0.333398,0.338652,0.339567,0.331246
559.000000,0.332589,0.333078,0.337826,0.339501,0.329842
560.000000,0.330489,0.332680,0.336859,0.339219,0.325424
561.000000,0.329064,0.331451,0.335796,0.338882,0.323727
562.000000,0.327279,0.330727,0.334887,0.338391,0.326156
563.000000,0.326706,0.329908,0.333920,0.337792,0.328379
564.000000,0.326723,0.329656,0.333262,0.337290,0.329930
565.000000,0.327308,0.328898,0.332466,0.336715,0.328350
566.000000,0.327975,0.328520,0.331598,0.336134,0.327063
567.000000,0.328344,0.327812,0.331032,0.335529,0.327999
568.000000,0.328467,0.327586,0.330492,0.334963,0.328994
569.000000,0.328637,0.327680,0.330379,0.334444,0.330778
570.000000,0.329772,0.328540,0.330610,0.334086,0.334026
571.000000,0.331504,0.329740,0.330595,0.333777,0.335723
572.000000,0.333078,0.330711,0.330719,0.333495,0.335869
573.000000,0.333973,0.331220,0.330564,0.333020,0.333470
574.000000,0.334312,0.331475,0.330565,0.332666,0.332475
575.000000,0.333847,0.331810,0.330354,0.332247,0.331700
576.000000,0.332999,0.332251,0.330385,0.331816,0.331480
577.000000,0.332437,0.332757,0.330285,0.331607,0.333060
578.000000,0.332168,0.333071,0.330328,0.331352,0.332124
579.000000,0.331910,0.333111,0.330396,0.331290,0.331188
580.000000,0.331656,0.332752,0.330646,0.331324,0.330427
581.000000,0.330696,0.331848,0.330794,0.331013,0.326682
582.000000,0.328698,0.330568,0.330639,0.330669,0.323069
583.000000,0.326861,0.329514,0.330367,0.330214,0.322937
584.000000,0.325620,0.328765,0.330120,0.329965,0.324985
585.000000,0.324356,0.328006,0.329908,0.329571,0.324108
586.000000,0.324719,0.327708,0.329980,0.329493,0.328496
587.000000,0.325945,0.327322,0.330039,0.329297,0.329198
588.000000,0.326185,0.326523,0.329797,0.329060,0.324137
589.000000,0.326150,0.325885,0.329498,0.328892,0.324810
590.000000,0.327133,0.325745,0.329248,0.329012,0.329023
591.000000,0.328444,0.326581,0.329214,0.329390,0.335050
592.000000,0.329111,0.327528,0.329048,0.329602,0.332534
593.000000,0.329959,0.328072,0.328793,0.329602,0.328379
594.000000,0.330942,0.328546,0.328656,0.329595,0.329725
595.000000,0.332077,0.329605,0.328806,0.329807,0.334699
596.000000,0.332855,0.330650,0.329179,0.330203,0.338941
597.000000,0.333909,0.331510,0.329416,0.330530,0.337800
598.000000,0.335524,0.332741,0.329632,0.330778,0.336454
599.000000,0.336554,0.333748,0.329816,0.330915,0.334874
600.000000,0.336679,0.334378,0.330061,0.330958,0.335328
601.000000,0.335948,0.334402,0.330492,0.330944,0.335284
602.000000,0.334719,0.334314,0.330921,0.330803,0.331656
603.000000,0.334468,0.334996,0.331534,0.330861,0.335196
604.000000,0.334731,0.335642,0.332094,0.330984,0.336191
605.000000,0.334628,0.335654,0.332629,0.331088,0.334816
606.000000,0.334582,0.335265,0.332957,0.331207,0.335050
607.000000,0.335026,0.334873,0.333191,0.331235,0.333879
608.000000,0.335275,0.334871,0.333806,0.331378,0.336439
609.000000,0.334965,0.334848,0.334298,0.331494,0.334640
610.000000,0.334895,0.334762,0.334570,0.331628,0.334465
611.000000,0.334620,0.334601,0.334501,0.331861,0.333675
612.000000,0.334912,0.334969,0.334642,0.332270,0.335342
613.000000,0.335465,0.335370,0.335183,0.332813,0.339204
614.000000,0.336998,0.335982,0.335812,0.333390,0.342305
615.000000,0.338344,0.336619,0.336137,0.333959,0.341194
616.000000,0.339152,0.336886,0.336075,0.334267,0.337712
617.000000,0.339959,0.337436,0.336154,0.334606,0.339380
618.000000,0.340386,0.337926,0.336398,0.335179,0.341340
619.000000,0.340860,0.338929,0.336889,0.335842,0.344675
620.000000,0.341258,0.339801,0.337281,0.336314,0.343183
621.000000,0.342861,0.341006,0.337804,0.336670,0.345728
622.000000,0.344201,0.342080,0.338525,0.337121,0.346080
623.000000,0.344962,0.342674,0.339022,0.337680,0.345143
624.000000,0.344921,0.342891,0.339436,0.338171,0.344470
625.000000,0.345336,0.343297,0.339958,0.338524,0.345260
626.000000,0.343470,0.343166,0.340026,0.338439,0.336396
627.000000,0.341381,0.342791,0.340113,0.338366,0.335635
628.000000,0.340521,0.342741,0.340334,0.338513,0.340843
629.000000,0.339450,0.342185,0.340557,0.338654,0.339116
630.000000,0.337747,0.341542,0.340671,0.338701,0.336747
631.000000,0.337794,0.340632,0.340819,0.338746,0.336630
632.000000,0.336846,0.339114,0.340597,0.338721,0.330895
633.000000,0.334587,0.337554,0.340114,0.338533,0.329549
634.000000,0.333996,0.336723,0.339807,0.338532,0.336161
635.000000,0.334833,0.336290,0.339794,0.338736,0.340930
636.000000,0.336325,0.337060,0.340113,0.339037,0.344090
637.000000,0.338596,0.337721,0.340256,0.339316,0.342247
638.000000,0.338116,0.336352,0.339547,0.339006,0.327150
639.000000,0.336302,0.335149,0.338667,0.338755,0.327092
640.000000,0.332978,0.333906,0.337724,0.338416,0.324312
641.000000,0.327478,0.331902,0.336267,0.337847,0.316589
642.000000,0.322276,0.330436,0.334775,0.337210,0.316238
643.000000,0.318654,0.328385,0.332970,0.336204,0.309040
644.000000,0.313651,0.324977,0.330850,0.334863,0.302077
645.000000,0.308701,0.320840,0.328565,0.333476,0.299561
646.000000,0.307946,0.317712,0.327386,0.332646,0.312815
647.000000,0.308227,0.315252,0.326486,0.331921,0.317642
648.000000,0.309918,0.314286,0.325319,0.331126,0.317496
649.000000,0.312920,0.313286,0.324217,0.330207,0.317086
650.000000,0.316126,0.312414,0.323160,0.329287,0.315594
651.000000,0.315904,0.311925,0.321913,0.328153,0.311703
652.000000,0.314745,0.311486,0.320961,0.327012,0.311849
653.000000,0.312809,0.311363,0.319874,0.325768,0.307812
654.000000,0.310199,0.311559,0.318268,0.324420,0.304037
655.000000,0.309462,0.312794,0.316817,0.323308,0.311908
656.000000,0.308215,0.312060,0.314886,0.322277,0.305471
657.000000,0.306717,0.310731,0.312992,0.321235,0.304359
658.000000,0.305728,0.309269,0.311777,0.319969,0.302867
659.000000,0.306185,0.308192,0.310739,0.318876,0.306319
660.000000,0.304810,0.307136,0.309775,0.317818,0.305032
661.000000,0.304903,0.306559,0.309242,0.316795,0.305939
662.000000,0.304008,0.305363,0.308425,0.315762,0.299883
663.000000,0.301872,0.303800,0.307582,0.314516,0.292188
664.000000,0.297490,0.301837,0.306698,0.312791,0.284406
665.000000,0.290468,0.297639,0.305217,0.310424,0.269924
666.000000,0.282557,0.293730,0.302895,0.307834,0.266384
667.000000,0.277057,0.290532,0.300632,0.305505,0.272382
668.000000,0.274318,0.288095,0.298682,0.303883,0.278496
669.000000,0.273675,0.285582,0.296887,0.302353,0.281188
670.000000,0.275448,0.282958,0.295047,0.300836,0.278789
671.000000,0.275623,0.279090,0.292825,0.299192,0.267262
672.000000,0.275875,0.276466,0.290914,0.297772,0.273640
673.000000,0.275167,0.274743,0.289272,0.296635,0.274956
674.000000,0.273528,0.273602,0.287719,0.295666,0.272996
675.000000,0.274178,0.274813,0.286226,0.295082,0.282036
676.000000,0.276957,0.276290,0.285010,0.294027,0.281159
677.000000,0.278777,0.277326,0.283929,0.292863,0.282738
678.000000,0.280380,0.277774,0.282934,0.291713,0.282972
679.000000,0.280878,0.277203,0.281393,0.290326,0.275483
680.000000,0.279637,0.276908,0.279933,0.289000,0.275834
681.000000,0.279035,0.277996,0.278543,0.287882,0.278145
682.000000,0.277759,0.278268,0.277367,0.286699,0.276360
683.000000,0.275693,0.278037,0.276390,0.285527,0.272645
684.000000,0.275278,0.278078,0.275840,0.284506,0.273406
685.000000,0.273721,0.276679,0.275746,0.283044,0.268051
686.000000,0.270720,0.274877,0.275584,0.281633,0.263136
687.000000,0.267004,0.272382,0.274854,0.280080,0.257782
688.000000,0.264166,0.269930,0.273852,0.278600,0.258455
689.000000,0.258935,0.267106,0.272155,0.276631,0.247250
690.000000,0.255617,0.264669,0.270788,0.274845,0.251463
691.000000,0.254301,0.262510,0.270253,0.273199,0.256554
692.000000,0.255483,0.261243,0.269756,0.271992,0.263692
693.000000,0.258011,0.261088,0.269563,0.271289,0.271094
694.000000,0.263909,0.261422,0.269750,0.271034,0.276741
695.000000,0.268268,0.261943,0.269311,0.271145,0.273259
696.000000,0.272142,0.263221,0.269049,0.271463,0.275922
697.000000,0.275442,0.265462,0.268922,0.271723,0.280193
698.000000,0.277379,0.267695,0.268812,0.271799,0.280778
699.000000,0.278988,0.271448,0.269277,0.271919,0.284786
700.000000,0.281200,0.274734,0.269702,0.272104,0.284318
701.000000,0.282961,0.277551,0.270031,0.272686,0.284728
702.000000,0.285003,0.280222,0.270733,0.273245,0.290404
703.000000,0.287794,0.282586,0.271837,0.273904,0.294734
704.000000,0.290041,0.284514,0.272968,0.274671,0.296021
705.000000,0.292499,0.286849,0.274396,0.275157,0.296606
706.000000,0.294441,0.288701,0.275961,0.275600,0.294441
707.000000,0.296992,0.290998,0.278230,0.276280,0.303160
708.000000,0.298894,0.293344,0.280519,0.276989,0.304242
709.000000,0.300503,0.295272,0.283360,0.277942,0.304067
710.000000,0.301410,0.296954,0.285844,0.278786,0.301141
711.000000,0.303569,0.299005,0.288278,0.279689,0.305237
712.000000,0.303956,0.300474,0.290348,0.280647,0.305091
713.000000,0.304114,0.301504,0.292045,0.281726,0.305032
714.000000,0.304154,0.302329,0.293422,0.282755,0.304272
715.000000,0.304892,0.303151,0.295000,0.283981,0.304827
716.000000,0.304617,0.304093,0.296397,0.285338,0.303862
717.000000,0.303991,0.303973,0.297485,0.286811,0.301960
718.000000,0.303253,0.303683,0.298514,0.288241,0.301346
719.000000,0.301925,0.303040,0.299156,0.289920,0.297630
720.000000,0.300129,0.302510,0.299732,0.291399,0.295846
721.000000,0.298812,0.301714,0.300360,0.292757,0.297279
722.000000,0.296472,0.300231,0.300353,0.293642,0.290257
723.000000,0.295202,0.299228,0.300366,0.294439,0.294997
724.000000,0.295331,0.298628,0.300478,0.295157,0.298274
725.000000,0.295676,0.297902,0.300527,0.295967,0.297572
726.000000,0.297209,0.298011,0.301052,0.296935,0.304944
727.000000,0.299643,0.298057,0.301015,0.297676,0.302428
728.000000,0.301861,0.298531,0.301107,0.298520,0.306085
729.000000,0.303920,0.299626,0.301333,0.299312,0.308572
730.000000,0.306132,0.300904,0.301707,0.300123,0.308631
731.000000,0.307437,0.302323,0.302019,0.301014,0.311469
732.000000,0.309099,0.304371,0.302301,0.301692,0.310737
733.000000,0.309754,0.305807,0.302518,0.302180,0.309362
734.000000,0.310509,0.307215,0.302921,0.302724,0.312346
735.000000,0.310421,0.308277,0.303090,0.303110,0.308192
736.000000,0.309157,0.308297,0.303154,0.303467,0.305149
737.000000,0.309011,0.309055,0.303556,0.303695,0.310006
738.000000,0.308572,0.309163,0.303847,0.303793,0.307168
739.000000,0.306226,0.308367,0.303996,0.303678,0.300614
740.000000,0.304008,0.307215,0.304059,0.303543,0.297104
741.000000,0.302007,0.305582,0.303953,0.303207,0.295143
742.000000,0.297776,0.303394,0.303882,0.302665,0.288853
743.000000,0.293528,0.301050,0.303429,0.302028,0.285927
744.000000,0.291071,0.298648,0.302932,0.301497,0.288327
745.000000,0.290293,0.297150,0.302714,0.301110,0.293212
746.000000,0.288748,0.295377,0.301837,0.300562,0.287420
747.000000,0.287320,0.292548,0.300802,0.299887,0.281714
748.000000,0.287028,0.290278,0.299721,0.299324,0.284465
749.000000,0.287150,0.289111,0.298739,0.299035,0.288941
750.000000,0.287162,0.288727,0.297971,0.298949,0.293271
751.000000,0.288420,0.288584,0.297083,0.298830,0.293710
752.000000,0.290532,0.288926,0.296160,0.298897,0.292276
753.000000,0.292493,0.289760,0.295405,0.298873,0.294266
754.000000,0.293084,0.290117,0.294383,0.298660,0.291896
755.000000,0.292253,0.289707,0.293429,0.298378,0.289116
756.000000,0.290831,0.289626,0.292501,0.297767,0.286600
757.000000,0.289901,0.290217,0.291382,0.297273,0.287624
758.000000,0.287496,0.289994,0.290136,0.296478,0.282241
759.000000,0.284851,0.288967,0.289039,0.295482,0.278672
760.000000,0.282317,0.287285,0.288006,0.294409,0.276448
761.000000,0.280263,0.285547,0.287066,0.293238,0.276331
762.000000,0.278397,0.284149,0.286537,0.292156,0.278291
763.000000,0.276396,0.281946,0.285853,0.290919,0.272235
764.000000,0.275413,0.280132,0.285124,0.289632,0.273757
765.000000,0.273897,0.278107,0.283907,0.288322,0.268871
766.000000,0.272229,0.276246,0.282936,0.287083,0.267993
767.000000,0.271293,0.274845,0.282531,0.285870,0.273610
768.000000,0.270632,0.273514,0.281754,0.284595,0.268929
769.000000,0.270392,0.272902,0.280935,0.283660,0.272557
770.000000,0.269930,0.271913,0.279599,0.282642,0.266559
771.000000,0.270503,0.271366,0.278457,0.281832,0.270860
772.000000,0.270082,0.270688,0.277418,0.281254,0.271504
773.000000,0.270181,0.270407,0.276176,0.280704,0.269427
774.000000,0.271328,0.270860,0.275496,0.280370,0.278291
775.000000,0.273950,0.271940,0.275023,0.279918,0.279666
776.000000,0.274219,0.272361,0.274304,0.279411,0.272206
777.000000,0.275571,0.272826,0.273836,0.279296,0.278262
778.000000,0.277683,0.273932,0.273723,0.279147,0.279988
779.000000,0.276366,0.273847,0.273375,0.278572,0.271709
780.000000,0.272891,0.273420,0.272667,0.277539,0.262288
781.000000,0.271691,0.272955,0.272161,0.276623,0.266208
782.000000,0.269485,0.272528,0.271608,0.275788,0.267232
783.000000,0.265723,0.271703,0.271055,0.274685,0.261176
784.000000,0.265085,0.270726,0.270793,0.273906,0.268520
785.000000,0.267408,0.270149,0.271044,0.273399,0.273903
786.000000,0.269754,0.270723,0.271542,0.273110,0.277940
787.000000,0.271714,0.270600,0.271713,0.272757,0.277033
788.000000,0.275436,0.270579,0.272256,0.272675,0.279783
789.000000,0.278327,0.271706,0.272776,0.272818,0.282972
790.000000,0.279058,0.273233,0.273327,0.272855,0.277560
791.000000,0.279456,0.274605,0.273780,0.272975,0.279930
792.000000,0.280813,0.276264,0.274396,0.273160,0.283821
793.000000,0.282294,0.278865,0.275284,0.273658,0.287185
794.000000,0.282183,0.280255,0.275490,0.273947,0.282417
795.000000,0.284939,0.281998,0.276074,0.274696,0.291340
796.000000,0.287074,0.283265,0.276994,0.275450,0.290609
797.000000,0.288999,0.284906,0.277753,0.276111,0.293446
798.000000,0.291533,0.286913,0.278746,0.277142,0.299854
799.000000,0.295535,0.288859,0.280282,0.278137,0.302428
800.000000,0.296665,0.290802,0.282017,0.279152,0.296987
801.000000,0.298391,0.292733,0.283669,0.280098,0.299239
802.000000,0.299918,0.294459,0.285361,0.281083,0.301083
803.000000,0.301393,0.296463,0.287664,0.282343,0.307226
804.000000,0.302194,0.298865,0.289560,0.283282,0.306437
805.000000,0.304096,0.300380,0.291189,0.284176,0.306495
806.000000,0.306630,0.302510,0.292888,0.285499,0.311908
807.000000,0.310427,0.305173,0.295039,0.286893,0.320070
808.000000,0.312703,0.307048,0.296981,0.288180,0.318607
809.000000,0.315132,0.308663,0.298761,0.289743,0.318578
810.000000,0.318104,0.311100,0.300951,0.291712,0.321358
811.000000,0.319585,0.313107,0.302920,0.293482,0.319310
812.000000,0.319321,0.314874,0.304666,0.295199,0.318754
813.000000,0.319614,0.316159,0.306311,0.297162,0.320070
814.000000,0.320597,0.317864,0.308365,0.298995,0.323493
815.000000,0.321802,0.319953,0.310167,0.300777,0.327384
816.000000,0.323177,0.321381,0.311946,0.302385,0.326185
817.000000,0.325611,0.322466,0.313819,0.304182,0.330925
818.000000,0.327244,0.323429,0.315238,0.305797,0.328233
819.000000,0.327747,0.324172,0.316417,0.307231,0.326009
820.000000,0.327853,0.324827,0.317964,0.308910,0.327911
821.000000,0.327338,0.325257,0.319182,0.310366,0.323610
822.000000,0.326589,0.326100,0.320487,0.311811,0.327180
823.000000,0.326290,0.326767,0.321463,0.313130,0.326741
824.000000,0.327174,0.327461,0.322662,0.314730,0.330427
825.000000,0.328432,0.328142,0.324048,0.316159,0.334201
826.000000,0.330714,0.329026,0.325203,0.317639,0.335020
827.000000,0.332774,0.329681,0.326074,0.319107,0.337478
828.000000,0.335155,0.330723,0.327076,0.320400,0.338648
829.000000,0.337267,0.332221,0.328196,0.321685,0.340989
830.000000,0.338344,0.333388,0.329108,0.323105,0.339585
831.000000,0.335857,0.333286,0.329272,0.323883,0.322586
832.000000,0.334593,0.333683,0.329892,0.324886,0.331159
833.000000,0.332750,0.333953,0.330360,0.325626,0.329432
834.000000,0.330995,0.334131,0.330796,0.326485,0.332212
835.000000,0.329193,0.333768,0.330955,0.327288,0.330573
836.000000,0.330661,0.333259,0.331142,0.327889,0.329930
837.000000,0.329023,0.331808,0.330745,0.327985,0.322967
838.000000,0.328227,0.330489,0.330606,0.328213,0.325453
839.000000,0.325857,0.328426,0.330323,0.328273,0.320363
840.000000,0.323283,0.326238,0.329813,0.328151,0.317700
841.000000,0.320831,0.325746,0.329516,0.328096,0.317671
842.000000,0.319614,0.324318,0.329001,0.328034,0.316881
843.000000,0.317390,0.322809,0.328381,0.327843,0.314336
844.000000,0.316940,0.321398,0.327765,0.327663,0.318110
845.000000,0.316255,0.319769,0.326769,0.327226,0.314277
846.000000,0.315617,0.318224,0.325742,0.326836,0.314482
847.000000,0.314675,0.317145,0.324476,0.326211,0.312171
848.000000,0.315097,0.316243,0.323366,0.325818,0.316442
849.000000,0.314090,0.315515,0.321970,0.325387,0.313078
850.000000,0.313487,0.314871,0.320554,0.324832,0.311264
851.000000,0.312405,0.314011,0.319879,0.324348,0.309070
852.000000,0.312118,0.313397,0.318858,0.323799,0.310737
853.000000,0.311106,0.313101,0.317955,0.323287,0.311381
854.000000,0.311545,0.312817,0.317108,0.322782,0.315272
855.000000,0.312674,0.313081,0.316425,0.322206,0.316910
856.000000,0.313879,0.313142,0.315683,0.321542,0.315097
857.000000,0.315278,0.313698,0.315421,0.320884,0.317730
858.000000,0.316009,0.313558,0.314901,0.320097,0.315038
859.000000,0.316138,0.313841,0.314678,0.319261,0.315916
860.000000,0.316068,0.314371,0.314621,0.318493,0.316559
861.000000,0.316050,0.314965,0.314488,0.318241,0.315009
862.000000,0.315769,0.315524,0.314460,0.317746,0.316325
863.000000,0.315822,0.315916,0.314508,0.317275,0.315301
864.000000,0.317560,0.316849,0.314833,0.317022,0.324605
865.000000,0.318865,0.317466,0.315274,0.316772,0.323084
866.000000,0.319783,0.317917,0.315530,0.316428,0.319602
867.000000,0.319532,0.317651,0.315674,0.316164,0.315067
868.000000,0.319128,0.317475,0.315516,0.315759,0.313283
869.000000,0.316594,0.317077,0.315459,0.315478,0.311937
870.000000,0.314564,0.316714,0.315543,0.315319,0.312932
871.000000,0.313944,0.316864,0.315914,0.315280,0.316501
872.000000,0.314371,0.316951,0.316238,0.315291,0.317203
873.000000,0.314944,0.317036,0.316476,0.315351,0.316150
874.000000,0.315641,0.316118,0.316483,0.315261,0.315418
875.000000,0.318133,0.316349,0.316908,0.315632,0.325395
876.000000,0.314944,0.314444,0.316181,0.315168,0.300556
877.000000,0.309251,0.311811,0.314731,0.314387,0.288736
878.000000,0.304862,0.309903,0.313689,0.313645,0.294207
879.000000,0.301750,0.308695,0.312886,0.313205,0.299854
880.000000,0.297613,0.307873,0.312294,0.312986,0.304710
881.000000,0.298660,0.306802,0.311833,0.312877,0.305793
882.000000,0.300977,0.305114,0.311033,0.312530,0.300322
883.000000,0.302387,0.303625,0.310331,0.312192,0.301258
884.000000,0.302703,0.302226,0.309172,0.311731,0.301434
885.000000,0.303973,0.300793,0.308571,0.311536,0.311059
886.000000,0.305196,0.301928,0.308186,0.311430,0.311908
887.000000,0.308736,0.304857,0.308334,0.311439,0.318022
888.000000,0.312539,0.307463,0.308683,0.311614,0.320275
889.000000,0.315816,0.309260,0.308977,0.311677,0.317817
890.000000,0.317542,0.310758,0.309315,0.311782,0.319690
891.000000,0.319116,0.312156,0.309479,0.311941,0.319778
892.000000,0.318929,0.313833,0.309473,0.311966,0.317086
893.000000,0.319257,0.315898,0.309762,0.312186,0.321913
894.000000,0.319233,0.317525,0.309876,0.311956,0.317700
895.000000,0.318286,0.317914,0.309353,0.311685,0.314950
896.000000,0.316700,0.317908,0.309918,0.311427,0.311849
897.000000,0.315752,0.317341,0.311099,0.311336,0.312346
898.000000,0.313446,0.316352,0.311908,0.311240,0.310386
899.000000,0.311627,0.315430,0.312345,0.311128,0.308602
900.000000,0.309906,0.314096,0.312427,0.310909,0.306349
901.000000,0.308783,0.312741,0.312449,0.310567,0.306232
902.000000,0.306987,0.311369,0.312601,0.310105,0.303365
903.000000,0.305957,0.309702,0.312800,0.309742,0.305237
904.000000,0.305149,0.308388,0.312956,0.309380,0.304564
905.000000,0.304985,0.307446,0.312680,0.308718,0.305530
906.000000,0.304874,0.306829,0.312368,0.308888,0.305676
907.000000,0.305272,0.306129,0.311735,0.309442,0.305354
908.000000,0.305483,0.305720,0.311036,0.309845,0.306290
909.000000,0.305857,0.305503,0.310467,0.310064,0.306437
910.000000,0.305600,0.305293,0.309694,0.310049,0.304242
911.000000,0.305588,0.305231,0.308986,0.310043,0.305617
912.000000,0.305167,0.305219,0.308294,0.310140,0.303248
913.000000,0.304523,0.305003,0.307352,0.310201,0.303072
914.000000,0.303956,0.304906,0.306647,0.310273,0.303599
915.000000,0.304389,0.304994,0.306220,0.310118,0.306407
916.000000,0.304827,0.305208,0.306018,0.309981,0.307812
917.000000,0.306460,0.305813,0.305971,0.309761,0.311410
918.000000,0.308098,0.306311,0.306015,0.309461,0.311264
919.000000,0.309842,0.306899,0.306201,0.309277,0.312317
920.000000,0.310439,0.307414,0.306353,0.308934,0.309391
921.000000,0.311837,0.308332,0.306782,0.308768,0.314804
922.000000,0.312329,0.309394,0.307307,0.308661,0.313868
923.000000,0.312030,0.310064,0.307534,0.308256,0.309772
924.000000,0.311580,0.310711,0.307809,0.308002,0.310064
925.000000,0.312335,0.311387,0.308190,0.307942,0.313166
926.000000,0.312346,0.312092,0.308650,0.308043,0.314862
927.000000,0.312025,0.312177,0.308995,0.308040,0.312259
928.000000,0.311685,0.311858,0.309084,0.307963,0.308075
929.000000,0.308689,0.310135,0.308517,0.307512,0.295085
930.000000,0.306185,0.309260,0.308337,0.307322,0.300644
931.000000,0.302405,0.307376,0.307854,0.306980,0.295963
932.000000,0.298865,0.305445,0.307420,0.306686,0.294558
933.000000,0.296489,0.304087,0.307076,0.306385,0.296197
934.000000,0.296109,0.302399,0.306555,0.306005,0.293183
935.000000,0.295126,0.300655,0.306021,0.305679,0.295728
936.000000,0.295184,0.298795,0.305443,0.305365,0.296255
937.000000,0.296226,0.297545,0.304861,0.305178,0.299766
938.000000,0.297338,0.296913,0.304386,0.305027,0.301755
939.000000,0.299128,0.297618,0.303877,0.304884,0.302136
940.000000,0.299748,0.297437,0.303348,0.304704,0.298830
941.000000,0.300445,0.297815,0.302595,0.304508,0.299737
942.000000,0.301094,0.298660,0.302052,0.304500,0.303013
943.000000,0.300462,0.298900,0.301494,0.304350,0.298596
944.000000,0.300515,0.299822,0.301110,0.304311,0.302399
945.000000,0.301276,0.300512,0.300584,0.304185,0.302633
946.000000,0.301042,0.300743,0.299769,0.303877,0.298566
947.000000,0.299877,0.300486,0.299016,0.303403,0.297191
948.000000,0.299953,0.300208,0.298561,0.302993,0.298976
949.000000,0.294318,0.297417,0.297518,0.301723,0.274225
950.000000,0.288707,0.294991,0.296214,0.300563,0.274576
951.000000,0.283002,0.292022,0.294918,0.299071,0.270041
952.000000,0.277361,0.288619,0.293640,0.297575,0.268988
953.000000,0.271469,0.285711,0.292305,0.296233,0.269514
954.000000,0.270807,0.282563,0.291192,0.294928,0.270919
955.000000,0.270111,0.279409,0.289961,0.293525,0.271094
956.000000,0.270410,0.276706,0.288724,0.292081,0.271533
957.000000,0.270772,0.274067,0.287276,0.290699,0.270802
958.000000,0.271088,0.271279,0.285743,0.289467,0.271094
959.000000,0.270960,0.270884,0.284150,0.288640,0.270275
960.000000,0.271299,0.270705,0.282848,0.287711,0.272791
961.000000,0.270369,0.270389,0.281205,0.286742,0.266881
962.000000,0.270345,0.270559,0.279589,0.285946,0.270685
963.000000,0.270749,0.270919,0.278315,0.285177,0.273113
964.000000,0.271036,0.270998,0.276780,0.284461,0.271709
965.000000,0.270971,0.271135,0.275272,0.283685,0.272469
966.000000,0.271861,0.271115,0.273910,0.282854,0.271328
967.000000,0.271779,0.271062,0.272564,0.281871,0.270275
968.000000,0.270843,0.270796,0.271037,0.280761,0.268432
969.000000,0.270807,0.270922,0.270903,0.279741,0.271533
970.000000,0.271521,0.271246,0.270976,0.278981,0.276039
971.000000,0.272692,0.272276,0.271333,0.278229,0.277180
972.000000,0.274394,0.273087,0.271823,0.277421,0.278789
973.000000,0.277390,0.274116,0.272518,0.276915,0.283411
974.000000,0.279122,0.274965,0.272981,0.276175,0.280193
975.000000,0.280117,0.275819,0.273477,0.275454,0.281012
976.000000,0.280989,0.276840,0.273977,0.274887,0.281539
977.000000,0.281615,0.278005,0.274533,0.274378,0.281919
978.000000,0.281463,0.279427,0.275111,0.273834,0.282651
979.000000,0.281123,0.280123,0.275522,0.273976,0.278496
980.000000,0.281205,0.280661,0.275954,0.274204,0.281422
981.000000,0.281434,0.281211,0.276744,0.274626,0.282680
982.000000,0.282153,0.281884,0.277485,0.275177,0.285518
983.000000,0.283043,0.282253,0.278185,0.275763,0.287098
984.000000,0.284307,0.282715,0.278840,0.276226,0.284816
985.000000,0.285366,0.283286,0.279552,0.276747,0.286717
986.000000,0.284962,0.283198,0.280019,0.277051,0.280661
987.000000,0.283587,0.282870,0.280437,0.277312,0.278642
988.000000,0.281510,0.282276,0.280851,0.277500,0.276712
989.000000,0.280714,0.282510,0.281317,0.277852,0.280837
990.000000,0.279672,0.282519,0.281590,0.278142,0.281510
991.000000,0.280989,0.282975,0.282093,0.278821,0.287244
992.000000,0.283429,0.283508,0.282696,0.279493,0.290843
993.000000,0.286191,0.283850,0.283051,0.280073,0.290521
994.000000,0.287747,0.284231,0.283473,0.280637,0.288619
995.000000,0.288233,0.283953,0.283619,0.281019,0.283938
996.000000,0.287057,0.284023,0.283610,0.281354,0.281363
997.000000,0.285120,0.284274,0.283572,0.281716,0.281159
998.000000,0.283142,0.284666,0.283471,0.282123,0.280632
999.000000,0.281720,0.284734,0.283622,0.282456,0.281510
1000.000000,0.280895,0.284564,0.283542,0.282581,0.279813
1001.000000,0.280720,0.283888,0.283432,0.282692,0.280486
1002.000000,0.280076,0.282598,0.283053,0.282663,0.277940
1003.000000,0.279356,0.281249,0.282550,0.282451,0.277033
1004.000000,0.279140,0.280430,0.282330,0.282459,0.280427
1005.000000,0.278572,0.279734,0.281843,0.282324,0.276975
1006.000000,0.278245,0.279482,0.281752,0.282234,0.278847
1007.000000,0.278104,0.279090,0.281682,0.282078,0.277238
1008.000000,0.278432,0.278894,0.281780,0.281946,0.278672
1009.000000,0.279263,0.279201,0.281968,0.282148,0.284582
1010.000000,0.279819,0.279195,0.281880,0.282093,0.279754
1011.000000,0.279982,0.279114,0.281501,0.281992,0.279666
1012.000000,0.280913,0.279508,0.281053,0.281871,0.281890
1013.000000,0.281580,0.280006,0.280628,0.281702,0.282007
1014.000000,0.281205,0.280234,0.280332,0.281632,0.282709
1015.000000,0.281937,0.280878,0.280306,0.281521,0.283411
1016.000000,0.282364,0.281173,0.280328,0.281559,0.281802
1017.000000,0.282142,0.281527,0.280309,0.281631,0.280778
1018.000000,0.282317,0.281949,0.280421,0.281836,0.282885
1019.000000,0.282826,0.282016,0.280609,0.281984,0.285255
1020.000000,0.284073,0.283005,0.281100,0.282255,0.289643
1021.000000,0.286366,0.284365,0.281739,0.282456,0.293271
1022.000000,0.289778,0.285960,0.282734,0.282689,0.297835
1023.000000,0.292346,0.287332,0.283669,0.282862,0.295728
1024.000000,0.294892,0.288859,0.284547,0.283174,0.297981
1025.000000,0.296659,0.290366,0.285622,0.283659,0.298479
1026.000000,0.297706,0.292036,0.286605,0.284231,0.298508
1027.000000,0.296659,0.293218,0.287373,0.284612,0.292598
1028.000000,0.296355,0.294350,0.288150,0.285064,0.294207
1029.000000,0.295611,0.295252,0.288634,0.285490,0.294266
1030.000000,0.294980,0.295819,0.289412,0.286006,0.295319
1031.000000,0.293745,0.295726,0.290045,0.286401,0.292335
1032.000000,0.293745,0.295202,0.290581,0.286890,0.292598
1033.000000,0.293476,0.294915,0.291123,0.287418,0.292861
1034.000000,0.293212,0.294412,0.291635,0.287835,0.292949
1035.000000,0.292978,0.293979,0.292172,0.288407,0.294149
1036.000000,0.293499,0.293622,0.292829,0.288944,0.294939
1037.000000,0.294412,0.294078,0.293648,0.289608,0.297162
1038.000000,0.295231,0.294353,0.294352,0.290217,0.296957
1039.000000,0.296191,0.294702,0.294977,0.290656,0.297747
1040.000000,0.297262,0.295120,0.295470,0.291315,0.299503
1041.000000,0.298543,0.296021,0.295873,0.292037,0.301346
1042.000000,0.299269,0.296840,0.296021,0.292667,0.300790
1043.000000,0.299912,0.297572,0.296243,0.293273,0.300176
1044.000000,0.300813,0.298502,0.296457,0.293924,0.302253
1045.000000,0.300860,0.299061,0.296520,0.294469,0.299737
1046.000000,0.300527,0.299535,0.296578,0.295064,0.299678
1047.000000,0.300807,0.300038,0.297058,0.295778,0.302194
1048.000000,0.300679,0.300295,0.297324,0.296333,0.299532
1049.000000,0.299947,0.300380,0.297541,0.296778,0.298596
1050.000000,0.299216,0.300038,0.297579,0.296992,0.296080
1051.000000,0.298250,0.299389,0.297705,0.297045,0.294851
1052.000000,0.300322,0.300565,0.298702,0.297536,0.312551
1053.000000,0.300644,0.300661,0.299116,0.297716,0.301141
1054.000000,0.300661,0.300304,0.299403,0.297739,0.298683
1055.000000,0.301527,0.300372,0.299716,0.297804,0.300410
1056.000000,0.302083,0.300167,0.299851,0.297775,0.297630
1057.000000,0.300451,0.300386,0.300212,0.298168,0.304389
1058.000000,0.300854,0.300749,0.300522,0.298466,0.303160
1059.000000,0.302259,0.301460,0.300920,0.298847,0.305705
1060.000000,0.303950,0.302738,0.301388,0.299299,0.308865
1061.000000,0.305559,0.303821,0.301605,0.299744,0.305676
1062.000000,0.305682,0.303066,0.301815,0.300157,0.305003
1063.000000,0.306267,0.303561,0.302111,0.300598,0.306085
1064.000000,0.305857,0.304058,0.302181,0.300955,0.303657
1065.000000,0.304833,0.304391,0.302382,0.301275,0.303745
1066.000000,0.305120,0.305339,0.302753,0.301680,0.307109
1067.000000,0.306009,0.305846,0.303116,0.302090,0.309450
1068.000000,0.306366,0.306317,0.303533,0.302454,0.307870
1069.000000,0.307121,0.306489,0.303975,0.302776,0.307431
1070.000000,0.307858,0.306346,0.304542,0.303041,0.307431
1071.000000,0.307741,0.306431,0.305126,0.303213,0.306524
1072.000000,0.307291,0.306650,0.304858,0.303427,0.307197
1073.000000,0.307314,0.306840,0.305200,0.303687,0.307987
1074.000000,0.307882,0.307501,0.305780,0.303955,0.310269
1075.000000,0.308297,0.308078,0.306235,0.304280,0.309508
1076.000000,0.309052,0.308397,0.306868,0.304634,0.310298
1077.000000,0.309087,0.308189,0.307017,0.304807,0.307373
1078.000000,0.308590,0.307952,0.307134,0.305006,0.305500
1079.000000,0.308204,0.308043,0.307266,0.305331,0.308338
1080.000000,0.307589,0.307943,0.307145,0.305676,0.306437
1081.000000,0.306969,0.308011,0.307221,0.306087,0.307197
1082.000000,0.307736,0.308411,0.307531,0.306043,0.311205
1083.000000,0.308625,0.308607,0.307724,0.306336,0.309947
1084.000000,0.310158,0.309181,0.308341,0.306913,0.316004
1085.000000,0.313716,0.310652,0.309365,0.307707,0.324225
1086.000000,0.316922,0.311946,0.310171,0.308561,0.323230
1087.000000,0.319801,0.313768,0.310979,0.309268,0.325600
1088.000000,0.322083,0.315354,0.311653,0.309874,0.321358
1089.000000,0.322932,0.316545,0.312294,0.310359,0.320246
1090.000000,0.322142,0.317929,0.312936,0.310739,0.320275
1091.000000,0.321393,0.319157,0.313584,0.311200,0.319485
1092.000000,0.320573,0.320187,0.314299,0.311750,0.321504
1093.000000,0.320995,0.321539,0.315073,0.312329,0.323464
1094.000000,0.320392,0.321662,0.315421,0.312781,0.317232
1095.000000,0.319444,0.320793,0.315723,0.313174,0.315535
1096.000000,0.318654,0.320023,0.315984,0.313455,0.315535
1097.000000,0.317232,0.318903,0.316336,0.313620,0.314394
1098.000000,0.315219,0.318107,0.316731,0.313804,0.313400
1099.000000,0.314956,0.317674,0.317109,0.314087,0.315916
1100.000000,0.314699,0.317071,0.317500,0.314314,0.314248
1101.000000,0.313312,0.315983,0.317570,0.314384,0.308602
1102.000000,0.312101,0.314666,0.317427,0.314422,0.308338
1103.000000,0.311872,0.313546,0.317542,0.314564,0.312259
1104.000000,0.310960,0.312958,0.317310,0.314600,0.311352
1105.000000,0.310544,0.312621,0.316707,0.314689,0.312171
1106.000000,0.311398,0.312355,0.316189,0.314775,0.312873
1107.000000,0.312288,0.312194,0.315549,0.314955,0.312785
1108.000000,0.312586,0.312229,0.315168,0.315230,0.313751
1109.000000,0.312621,0.311791,0.314732,0.315336,0.311527
1110.000000,0.312422,0.311483,0.314277,0.315494,0.311176
1111.000000,0.313721,0.312560,0.314272,0.315900,0.319368
1112.000000,0.315775,0.314032,0.314349,0.316295,0.323054
1113.000000,0.316431,0.314508,0.314027,0.316531,0.317028
1114.000000,0.317542,0.315082,0.314020,0.316567,0.317086
1115.000000,0.318414,0.315418,0.314020,0.316278,0.315535
1116.000000,0.317689,0.315705,0.314030,0.316028,0.315740
1117.000000,0.317402,0.316589,0.314391,0.315895,0.321621
1118.000000,0.318444,0.317437,0.314833,0.315925,0.322235
1119.000000,0.320310,0.318926,0.315358,0.316130,0.326419
1120.000000,0.322446,0.320430,0.315957,0.316328,0.326214
1121.000000,0.324435,0.321062,0.316811,0.316535,0.325688
1122.000000,0.325155,0.321279,0.317655,0.316659,0.325219
1123.000000,0.325723,0.322083,0.318296,0.316713,0.325073
1124.000000,0.325260,0.322785,0.318934,0.316942,0.324108
1125.000000,0.324781,0.323613,0.319516,0.317218,0.323815
1126.000000,0.324342,0.324389,0.320047,0.317483,0.323493
1127.000000,0.324061,0.324608,0.320598,0.317797,0.323815
1128.000000,0.323891,0.324807,0.321122,0.318158,0.324225
1129.000000,0.323721,0.324491,0.321709,0.318403,0.323259
1130.000000,0.323950,0.324365,0.322398,0.318760,0.324956
1131.000000,0.323411,0.323877,0.322469,0.319166,0.320802
1132.000000,0.322990,0.323525,0.322402,0.319612,0.321709
1133.000000,0.322867,0.323379,0.322731,0.319990,0.323610
1134.000000,0.322978,0.323350,0.323068,0.320406,0.323815
1135.000000,0.322382,0.323166,0.323389,0.320732,0.321972
1136.000000,0.323171,0.323291,0.323840,0.321128,0.324751
1137.000000,0.323768,0.323379,0.323994,0.321525,0.324693
1138.000000,0.323979,0.323423,0.324115,0.321889,0.324664
1139.000000,0.324658,0.323818,0.324154,0.322412,0.327209
1140.000000,0.326033,0.324207,0.324286,0.323001,0.328847
1141.000000,0.327086,0.325129,0.324503,0.323356,0.330018
1142.000000,0.328245,0.326006,0.324766,0.323603,0.330486
1143.000000,0.329403,0.326691,0.325035,0.324051,0.330456
1144.000000,0.330433,0.327545,0.325448,0.324560,0.332358
1145.000000,0.327109,0.326571,0.324868,0.324450,0.312229
1146.000000,0.323347,0.325217,0.324254,0.324299,0.311205
1147.000000,0.318917,0.323581,0.323480,0.323856,0.308338
1148.000000,0.315500,0.322452,0.322937,0.323561,0.313370
1149.000000,0.311492,0.320963,0.322390,0.323091,0.312317
1150.000000,0.311159,0.319134,0.321671,0.322569,0.310562
1151.000000,0.310960,0.317153,0.321141,0.322053,0.310211
1152.000000,0.310878,0.314898,0.320452,0.321476,0.307929
1153.000000,0.309707,0.312604,0.319647,0.320891,0.307519
1154.000000,0.309391,0.310442,0.318994,0.320446,0.310737
1155.000000,0.308525,0.309842,0.318207,0.319860,0.306232
1156.000000,0.307929,0.309444,0.317330,0.319317,0.307226
1157.000000,0.307864,0.309371,0.316476,0.318777,0.307607
1158.000000,0.306864,0.308286,0.315369,0.318053,0.302516
1159.000000,0.305202,0.307297,0.314130,0.317359,0.302428
1160.000000,0.303248,0.305886,0.312510,0.316409,0.296460
1161.000000,0.300743,0.304336,0.310745,0.315539,0.294705
1162.000000,0.299233,0.303549,0.309223,0.314818,0.300059
1163.000000,0.298964,0.302914,0.307759,0.314070,0.301170
1164.000000,0.299181,0.302191,0.306317,0.313393,0.303511
1165.000000,0.299971,0.301609,0.305726,0.312674,0.300410
1166.000000,0.300761,0.300752,0.305098,0.311804,0.298654
1167.000000,0.300661,0.299947,0.304659,0.310966,0.299561
1168.000000,0.301597,0.300281,0.304283,0.310339,0.305851
1169.000000,0.301533,0.300357,0.303827,0.309539,0.303189
1170.000000,0.302136,0.301053,0.303470,0.308691,0.303423
1171.000000,0.303095,0.301928,0.303132,0.307806,0.303452
1172.000000,0.304125,0.302393,0.302971,0.306947,0.304710
1173.000000,0.303727,0.302662,0.302788,0.306060,0.303862
1174.000000,0.303833,0.302683,0.302437,0.305105,0.303716
1175.000000,0.304190,0.303163,0.302386,0.304871,0.305208
1176.000000,0.304699,0.303897,0.302324,0.304698,0.305998
1177.000000,0.304283,0.304204,0.302076,0.304508,0.302633
1178.000000,0.304482,0.304105,0.302193,0.304224,0.304857
1179.000000,0.304599,0.304216,0.302286,0.303957,0.304301
1180.000000,0.304172,0.304181,0.302617,0.303707,0.303072
1181.000000,0.304939,0.304819,0.303373,0.303694,0.309830
1182.000000,0.306840,0.305562,0.303977,0.303835,0.312142
1183.000000,0.307343,0.305913,0.304288,0.303830,0.307373
1184.000000,0.308789,0.306694,0.304688,0.303856,0.311527
1185.000000,0.310374,0.307273,0.305218,0.304015,0.311001
1186.000000,0.310901,0.307920,0.305908,0.304190,0.312463
1187.000000,0.311867,0.309353,0.306779,0.304502,0.316969
1188.000000,0.314061,0.310702,0.307403,0.305029,0.318344
1189.000000,0.315530,0.312159,0.308188,0.305577,0.318871
1190.000000,0.316969,0.313672,0.308926,0.306302,0.318198
1191.000000,0.318350,0.314626,0.309722,0.307124,0.319368
1192.000000,0.318449,0.315158,0.310360,0.307704,0.317466
1193.000000,0.317970,0.316015,0.310964,0.308197,0.315945
1194.000000,0.317888,0.316709,0.311701,0.308695,0.318461
1195.000000,0.317829,0.317399,0.312336,0.309278,0.317905
1196.000000,0.318906,0.318628,0.313274,0.310148,0.324751
1197.000000,0.320942,0.319696,0.314525,0.311084,0.327648
1198.000000,0.323441,0.320705,0.315704,0.311837,0.328438
1199.000000,0.325886,0.321887,0.317023,0.312754,0.330690
1200.000000,0.328590,0.323209,0.318441,0.313687,0.331422
1201.000000,0.329549,0.324228,0.319427,0.314557,0.329549
1202.000000,0.329778,0.325360,0.320259,0.315360,0.328789
1203.000000,0.329661,0.326551,0.321283,0.316160,0.327853
1204.000000,0.329877,0.327882,0.322295,0.317095,0.331773
1205.000000,0.330006,0.329298,0.323348,0.317990,0.332066
1206.000000,0.330316,0.329933,0.324280,0.318827,0.331100
1207.000000,0.330655,0.330217,0.324956,0.319755,0.330486
1208.000000,0.331135,0.330398,0.325551,0.320602,0.330252
1209.000000,0.331668,0.330772,0.326330,0.321606,0.334435
1210.000000,0.334160,0.332083,0.327646,0.322988,0.344529
1211.000000,0.336337,0.333327,0.328777,0.324060,0.341984
1212.000000,0.338958,0.334807,0.330083,0.325108,0.343593
1213.000000,0.341791,0.336463,0.331507,0.326343,0.344412
1214.000000,0.344342,0.338005,0.332943,0.327532,0.347191
1215.000000,0.344441,0.339301,0.334299,0.328666,0.345026
1216.000000,0.344014,0.340176,0.335054,0.329579,0.339848
1217.000000,0.343312,0.341135,0.335676,0.330349,0.340082
1218.000000,0.342259,0.342025,0.336211,0.331043,0.339146
1219.000000,0.340790,0.342566,0.336669,0.331742,0.339848
1220.000000,0.339971,0.342206,0.337145,0.332500,0.340930
1221.000000,0.340076,0.342045,0.337686,0.333200,0.340374
1222.000000,0.340135,0.341723,0.338265,0.333963,0.340374
1223.000000,0.340252,0.341255,0.338859,0.334756,0.339731
1224.000000,0.339649,0.340219,0.339112,0.335369,0.336834
1225.000000,0.338561,0.339266,0.339283,0.335955,0.335489
1226.000000,0.337513,0.338795,0.339485,0.336301,0.335138
1227.000000,0.336349,0.338242,0.339688,0.336531,0.334552
1228.000000,0.334751,0.337501,0.339763,0.336641,0.331744
1229.000000,0.334096,0.336872,0.339719,0.336737,0.333558
1230.000000,0.333604,0.336083,0.339144,0.336791,0.333031
1231.000000,0.333798,0.335655,0.338850,0.337009,0.336103
1232.000000,0.334377,0.335363,0.338543,0.337298,0.337449
1233.000000,0.335477,0.335114,0.338185,0.337611,0.337244
1234.000000,0.336700,0.335398,0.337809,0.337874,0.339672
1235.000000,0.337882,0.335743,0.337504,0.338103,0.338941
1236.000000,0.339321,0.336559,0.337677,0.338510,0.343300
1237.000000,0.340298,0.337338,0.337790,0.338905,0.342335
1238.000000,0.341223,0.338350,0.337926,0.339292,0.341867
1239.000000,0.341123,0.338912,0.337892,0.339450,0.339175
1240.000000,0.342124,0.340003,0.338043,0.339430,0.343944
1241.000000,0.341779,0.340550,0.338103,0.339417,0.341574
1242.000000,0.341299,0.340799,0.338081,0.339295,0.339936
1243.000000,0.340866,0.341044,0.338079,0.339138,0.339702
1244.000000,0.340860,0.340992,0.338195,0.338870,0.339146
