0.000000,0.530869,0.531358,0.528916,0.527824,0.541237
1.000000,0.533999,0.532900,0.529953,0.528568,0.543346
2.000000,0.538106,0.534621,0.531269,0.529548,0.550783
3.000000,0.542236,0.535742,0.532112,0.530381,0.546121
4.000000,0.551116,0.540138,0.534343,0.531898,0.574093
5.000000,0.556488,0.543679,0.536230,0.533152,0.568099
6.000000,0.560773,0.547386,0.537973,0.534473,0.564769
7.000000,0.563925,0.551016,0.539899,0.535753,0.566545
8.000000,0.568432,0.555334,0.542136,0.537033,0.568654
9.000000,0.568054,0.559585,0.544705,0.538469,0.572206
10.000000,0.568920,0.562704,0.547031,0.540178,0.572428
11.000000,0.571495,0.566134,0.549517,0.542014,0.577645
12.000000,0.574359,0.569142,0.551881,0.543893,0.580864
13.000000,0.576113,0.572272,0.554007,0.545499,0.577423
14.000000,0.576690,0.572372,0.556255,0.547020,0.575092
15.000000,0.577867,0.573393,0.558536,0.548618,0.578311
16.000000,0.577844,0.574670,0.561028,0.550205,0.577534
17.000000,0.574981,0.574670,0.562843,0.551489,0.566545
18.000000,0.574759,0.575436,0.565385,0.553236,0.576313
19.000000,0.574870,0.575780,0.567682,0.555063,0.575647
20.000000,0.573604,0.575735,0.569220,0.556599,0.571984
21.000000,0.574048,0.575946,0.571040,0.558327,0.579754
22.000000,0.576646,0.575813,0.572478,0.559859,0.579532
23.000000,0.578044,0.576401,0.574337,0.561472,0.583306
24.000000,0.580375,0.577622,0.574997,0.563377,0.587302
25.000000,0.583350,0.578477,0.575935,0.565183,0.586858
26.000000,0.583972,0.579010,0.576840,0.567022,0.582862
27.000000,0.584460,0.580553,0.577611,0.568746,0.581974
28.000000,0.584815,0.581430,0.578433,0.570733,0.585082
29.000000,0.585392,0.582884,0.579332,0.572749,0.590188
30.000000,0.585836,0.584593,0.580164,0.574344,0.589078
31.000000,0.587168,0.585570,0.580758,0.575883,0.589522
32.000000,0.590099,0.587279,0.581546,0.577411,0.596626
33.000000,0.589122,0.586969,0.581685,0.578547,0.580198
34.000000,0.587035,0.586214,0.581918,0.578736,0.579754
35.000000,0.586480,0.586158,0.582318,0.579343,0.586303
36.000000,0.584238,0.585703,0.582357,0.579794,0.578311
37.000000,0.581374,0.585736,0.583145,0.580320,0.582307
38.000000,0.583883,0.586502,0.583966,0.581123,0.592741
39.000000,0.587679,0.587357,0.585120,0.582007,0.598735
40.000000,0.589122,0.587801,0.586197,0.582710,0.593518
41.000000,0.592008,0.588123,0.586846,0.583213,0.592741
42.000000,0.594983,0.588178,0.587729,0.583757,0.597181
43.000000,0.597158,0.590521,0.588745,0.584630,0.603619
44.000000,0.598468,0.593074,0.589644,0.585637,0.605284
45.000000,0.602420,0.595771,0.590965,0.586802,0.613276
46.000000,0.606749,0.599378,0.592541,0.588030,0.614386
47.000000,0.610212,0.602597,0.594167,0.589629,0.614497
48.000000,0.612321,0.604740,0.595621,0.590891,0.614164
49.000000,0.614430,0.606449,0.596903,0.592230,0.615829
50.000000,0.615429,0.608924,0.598363,0.593773,0.618271
51.000000,0.615895,0.611322,0.599722,0.595005,0.616717
52.000000,0.616894,0.613553,0.600866,0.596337,0.619492
53.000000,0.619825,0.616073,0.603297,0.597854,0.628816
54.000000,0.621556,0.617993,0.605533,0.599093,0.624487
55.000000,0.622755,0.619092,0.607431,0.600340,0.624265
56.000000,0.623732,0.619814,0.609596,0.601632,0.621601
57.000000,0.625597,0.621245,0.611921,0.603193,0.628816
58.000000,0.626018,0.622922,0.613831,0.604721,0.630925
59.000000,0.628438,0.624997,0.615723,0.606268,0.636586
60.000000,0.630059,0.626407,0.617666,0.607711,0.632368
61.000000,0.632789,0.628261,0.619791,0.609235,0.635254
62.000000,0.632767,0.629182,0.621368,0.610305,0.628705
63.000000,0.632390,0.629204,0.622638,0.611933,0.629038
64.000000,0.629593,0.629015,0.623504,0.613361,0.622600
65.000000,0.628305,0.629182,0.624137,0.614682,0.625930
66.000000,0.626551,0.629670,0.624742,0.616287,0.626485
67.000000,0.627905,0.630336,0.625791,0.618060,0.635476
68.000000,0.629704,0.631047,0.626984,0.619569,0.638029
69.000000,0.631502,0.630547,0.627772,0.620665,0.631591
70.000000,0.629282,0.628793,0.627600,0.621375,0.614830
71.000000,0.627994,0.627273,0.627767,0.622285,0.620047
72.000000,0.623021,0.625463,0.627323,0.622733,0.610612
73.000000,0.616561,0.623132,0.626168,0.622803,0.605728
74.000000,0.612521,0.622011,0.625513,0.623007,0.611389
75.000000,0.612676,0.620979,0.625080,0.623084,0.615607
76.000000,0.613342,0.620668,0.625169,0.623384,0.623377
77.000000,0.616650,0.619836,0.625086,0.623806,0.627151
78.000000,0.620202,0.618382,0.624714,0.624117,0.623488
79.000000,0.620890,0.616706,0.623626,0.624083,0.614830
80.000000,0.620646,0.616661,0.622727,0.623954,0.614386
81.000000,0.620513,0.616928,0.622100,0.624154,0.622711
82.000000,0.618226,0.617438,0.621451,0.624028,0.615718
83.000000,0.616961,0.618581,0.620857,0.623639,0.617161
84.000000,0.618293,0.619592,0.620801,0.623539,0.621490
85.000000,0.619891,0.620269,0.620624,0.623477,0.622378
86.000000,0.619980,0.620246,0.620457,0.623528,0.623155
87.000000,0.622178,0.620202,0.620019,0.623458,0.626707
88.000000,0.622977,0.619969,0.619175,0.623132,0.621157
89.000000,0.624087,0.621190,0.618948,0.622814,0.627040
90.000000,0.623887,0.621889,0.619275,0.622448,0.621379
91.000000,0.624242,0.622111,0.619519,0.622104,0.624931
92.000000,0.624709,0.623443,0.620441,0.622115,0.629038
93.000000,0.626063,0.624520,0.621551,0.622078,0.627928
94.000000,0.627350,0.625719,0.622655,0.622441,0.633478
95.000000,0.629748,0.626818,0.623543,0.622688,0.633367
96.000000,0.631280,0.627761,0.624004,0.622892,0.632590
97.000000,0.631147,0.627928,0.624065,0.622655,0.628372
98.000000,0.631413,0.628738,0.624353,0.622363,0.629260
99.000000,0.629526,0.628438,0.624814,0.622111,0.624043
100.000000,0.628216,0.628982,0.625436,0.622511,0.626818
101.000000,0.626618,0.628949,0.625530,0.622663,0.624598
102.000000,0.628016,0.629582,0.626512,0.623488,0.635365
103.000000,0.628083,0.629748,0.627134,0.624283,0.629593
104.000000,0.629482,0.629504,0.627611,0.624938,0.631036
105.000000,0.629726,0.628971,0.627894,0.625352,0.628039
106.000000,0.628638,0.627628,0.627695,0.625212,0.619159
107.000000,0.626507,0.627262,0.627595,0.625130,0.624709
108.000000,0.627128,0.627606,0.628172,0.625438,0.632701
109.000000,0.627883,0.628682,0.628560,0.626104,0.634810
110.000000,0.628483,0.629104,0.629043,0.626659,0.631036
111.000000,0.629082,0.628860,0.628904,0.626640,0.622156
112.000000,0.631324,0.628916,0.629249,0.627313,0.635920
113.000000,0.631413,0.629271,0.629509,0.627846,0.633145
114.000000,0.631302,0.629593,0.629548,0.628272,0.634255
115.000000,0.632390,0.630436,0.629704,0.628742,0.636475
116.000000,0.633611,0.631346,0.629487,0.628912,0.628261
117.000000,0.629237,0.630281,0.628771,0.628490,0.614053
118.000000,0.624775,0.628094,0.627850,0.628146,0.610834
119.000000,0.619647,0.625475,0.627078,0.627532,0.608614
120.000000,0.614141,0.623266,0.626185,0.627117,0.608947
121.000000,0.610501,0.622056,0.625458,0.626622,0.610057
122.000000,0.610700,0.619969,0.624442,0.626155,0.615052
123.000000,0.611100,0.617938,0.623604,0.625652,0.612832
124.000000,0.613586,0.616617,0.623105,0.625238,0.621046
125.000000,0.615673,0.614907,0.622672,0.624772,0.619381
126.000000,0.617716,0.614108,0.622727,0.624361,0.620269
127.000000,0.620402,0.615551,0.622916,0.624365,0.628483
128.000000,0.624154,0.617627,0.622860,0.624442,0.631591
129.000000,0.628261,0.620924,0.623199,0.625027,0.641581
130.000000,0.633344,0.624509,0.623887,0.625626,0.644800
131.000000,0.640981,0.629348,0.625702,0.626755,0.658453
132.000000,0.647708,0.634055,0.627012,0.627646,0.662116
133.000000,0.654057,0.639105,0.628521,0.628771,0.663337
134.000000,0.657676,0.642968,0.629792,0.629726,0.659674
135.000000,0.660539,0.646942,0.630925,0.630762,0.659119
136.000000,0.661672,0.651326,0.632717,0.632260,0.664114
137.000000,0.661516,0.654612,0.635082,0.633481,0.661339
138.000000,0.661250,0.657653,0.637640,0.634458,0.662005
139.000000,0.661561,0.659618,0.640271,0.635339,0.661228
140.000000,0.660051,0.660295,0.642402,0.636023,0.651571
141.000000,0.656743,0.659207,0.644278,0.636871,0.647575
142.000000,0.653102,0.657309,0.645682,0.637111,0.643135
143.000000,0.650549,0.655900,0.647502,0.637648,0.649240
144.000000,0.647930,0.654745,0.648857,0.638110,0.648130
145.000000,0.647242,0.653646,0.650294,0.638499,0.648130
146.000000,0.650727,0.653735,0.652531,0.639723,0.665002
147.000000,0.656366,0.654734,0.654673,0.641632,0.671329
148.000000,0.659651,0.655100,0.656377,0.643460,0.665668
149.000000,0.662049,0.654989,0.657304,0.645177,0.660118
150.000000,0.664513,0.655877,0.658086,0.646894,0.660451
151.000000,0.665468,0.658097,0.658652,0.648884,0.669775
152.000000,0.664669,0.660517,0.658913,0.650627,0.667333
153.000000,0.665224,0.662438,0.659169,0.652481,0.668443
154.000000,0.667177,0.664613,0.659679,0.654109,0.669886
155.000000,0.668975,0.666744,0.660195,0.655778,0.669442
156.000000,0.666445,0.665956,0.659846,0.657006,0.657121
157.000000,0.664602,0.664635,0.659685,0.657994,0.658120
158.000000,0.662426,0.663825,0.659463,0.658860,0.657565
159.000000,0.660184,0.663681,0.659335,0.659429,0.658675
160.000000,0.657054,0.663015,0.659446,0.659729,0.653791
161.000000,0.657920,0.662182,0.660140,0.659829,0.661450
162.000000,0.659141,0.661871,0.661194,0.659899,0.664225
163.000000,0.660983,0.661705,0.662071,0.660014,0.666778
164.000000,0.659674,0.659929,0.662271,0.659762,0.652126
165.000000,0.659474,0.658264,0.662504,0.659552,0.652792
166.000000,0.658630,0.658275,0.662116,0.659322,0.657232
167.000000,0.656344,0.657742,0.661189,0.659037,0.652792
168.000000,0.652570,0.656777,0.660301,0.658567,0.647908
169.000000,0.652281,0.655977,0.659829,0.658216,0.650683
170.000000,0.651571,0.655522,0.659269,0.658138,0.649240
171.000000,0.650017,0.654323,0.658253,0.658201,0.649462
172.000000,0.650771,0.653558,0.657715,0.658649,0.656566
173.000000,0.653258,0.652914,0.657309,0.659019,0.660340
174.000000,0.655234,0.653757,0.656843,0.659433,0.660562
175.000000,0.656699,0.654135,0.656199,0.659714,0.656566
176.000000,0.657809,0.653913,0.656094,0.659381,0.655012
177.000000,0.660406,0.655589,0.656666,0.659322,0.669553
178.000000,0.660451,0.656854,0.656815,0.659152,0.660562
179.000000,0.662027,0.658630,0.657304,0.659429,0.668443
180.000000,0.664158,0.660428,0.657975,0.659655,0.667222
181.000000,0.666889,0.662349,0.658336,0.659618,0.668665
182.000000,0.667066,0.663736,0.658647,0.659722,0.670441
183.000000,0.669064,0.664757,0.658836,0.659792,0.670552
184.000000,0.669153,0.665590,0.659674,0.659759,0.668887
185.000000,0.670174,0.667166,0.660650,0.659855,0.672328
186.000000,0.668864,0.667877,0.660895,0.660021,0.662116
187.000000,0.668265,0.667666,0.661627,0.660332,0.667444
188.000000,0.669775,0.669419,0.663137,0.661017,0.678100
189.000000,0.669819,0.669486,0.664058,0.661365,0.669109
190.000000,0.667954,0.669064,0.664746,0.661672,0.663004
191.000000,0.669020,0.668942,0.665645,0.661871,0.667444
192.000000,0.669308,0.668787,0.666262,0.662027,0.668887
193.000000,0.667111,0.668443,0.666600,0.662038,0.667111
194.000000,0.665978,0.667899,0.666744,0.662415,0.663448
195.000000,0.668642,0.668298,0.667732,0.663200,0.676324
196.000000,0.671573,0.670296,0.669086,0.664029,0.682096
197.000000,0.675258,0.672283,0.669974,0.665179,0.687313
198.000000,0.677789,0.672450,0.670935,0.666241,0.679765
199.000000,0.681962,0.673970,0.671728,0.667362,0.684316
200.000000,0.686003,0.677323,0.673193,0.668938,0.696526
201.000000,0.689866,0.680719,0.674831,0.670670,0.701410
202.000000,0.693484,0.684371,0.676579,0.672298,0.705406
203.000000,0.700144,0.688967,0.678705,0.674056,0.713065
204.000000,0.703918,0.692940,0.680420,0.675476,0.703186
205.000000,0.705717,0.695860,0.682079,0.677108,0.705517
206.000000,0.708136,0.699001,0.684649,0.679058,0.713509
207.000000,0.709513,0.701499,0.686891,0.680482,0.712288
208.000000,0.709002,0.704573,0.688511,0.682147,0.710512
209.000000,0.709468,0.706693,0.690332,0.683383,0.705517
210.000000,0.710800,0.708258,0.692791,0.684882,0.712177
211.000000,0.709935,0.709035,0.694877,0.686232,0.709180
212.000000,0.709735,0.709624,0.696997,0.687594,0.711289
213.000000,0.709224,0.709113,0.699040,0.688841,0.707959
214.000000,0.711022,0.710245,0.701593,0.690361,0.714508
215.000000,0.709357,0.710079,0.702969,0.691412,0.703852
216.000000,0.710157,0.710046,0.704523,0.693114,0.713176
217.000000,0.711577,0.710656,0.706077,0.694813,0.718393
218.000000,0.712954,0.711089,0.707831,0.696037,0.714841
219.000000,0.714552,0.712787,0.709740,0.697817,0.722500
220.000000,0.717904,0.713631,0.710945,0.699737,0.720613
221.000000,0.719436,0.714796,0.711916,0.701517,0.720835
222.000000,0.719569,0.715573,0.712599,0.703189,0.719059
223.000000,0.719547,0.716250,0.712682,0.704777,0.714730
224.000000,0.716883,0.715718,0.712981,0.706301,0.709180
225.000000,0.715063,0.716484,0.713281,0.707474,0.711511
226.000000,0.713420,0.716428,0.713237,0.708492,0.712621
227.000000,0.712221,0.715895,0.713276,0.709350,0.713065
228.000000,0.712177,0.715862,0.713475,0.710508,0.714508
229.000000,0.714530,0.715707,0.714247,0.711729,0.720946
230.000000,0.716350,0.715707,0.714669,0.712532,0.720613
231.000000,0.718060,0.715740,0.715268,0.713191,0.721168
232.000000,0.717993,0.715107,0.715340,0.713435,0.712732
233.000000,0.716750,0.714463,0.715357,0.713276,0.708292
234.000000,0.714819,0.714674,0.715196,0.713546,0.711289
235.000000,0.714308,0.715329,0.715906,0.713964,0.718060
236.000000,0.713464,0.715762,0.716095,0.714079,0.716950
237.000000,0.713620,0.715806,0.715851,0.714119,0.713509
238.000000,0.712288,0.714519,0.715190,0.713823,0.701632
239.000000,0.710778,0.712798,0.714252,0.713764,0.703741
240.000000,0.708580,0.711444,0.713575,0.713594,0.707071
241.000000,0.708092,0.710778,0.713259,0.713771,0.714508
242.000000,0.708514,0.711067,0.713087,0.713916,0.715618
243.000000,0.712665,0.712476,0.713470,0.714397,0.722389
244.000000,0.715729,0.713253,0.713964,0.714548,0.719059
245.000000,0.719414,0.713997,0.714663,0.715270,0.725497
246.000000,0.722700,0.715396,0.715579,0.715862,0.730936
247.000000,0.726962,0.717738,0.716772,0.716480,0.736930
248.000000,0.730758,0.721712,0.718115,0.717364,0.741370
249.000000,0.735065,0.725397,0.719098,0.717967,0.740593
250.000000,0.739882,0.729648,0.720546,0.718933,0.749584
251.000000,0.744234,0.733467,0.722122,0.719995,0.752692
252.000000,0.745876,0.736419,0.723743,0.720864,0.745144
253.000000,0.746010,0.738384,0.725430,0.721775,0.742036
254.000000,0.745521,0.740293,0.726773,0.722740,0.738151
255.000000,0.743923,0.741903,0.727950,0.723743,0.741592
256.000000,0.744811,0.744522,0.729959,0.725227,0.757132
257.000000,0.746187,0.746032,0.731885,0.726525,0.752026
258.000000,0.748851,0.747430,0.734571,0.727887,0.755356
259.000000,0.750250,0.747885,0.736641,0.728694,0.745144
260.000000,0.753447,0.748685,0.739166,0.729926,0.757576
261.000000,0.752980,0.748896,0.741181,0.731047,0.754801
262.000000,0.753535,0.749861,0.743140,0.732449,0.754801
263.000000,0.751737,0.750294,0.744339,0.733718,0.746365
264.000000,0.751826,0.751038,0.745665,0.734861,0.745588
265.000000,0.749029,0.751238,0.746570,0.735712,0.743590
266.000000,0.745255,0.749118,0.746820,0.736345,0.735931
267.000000,0.737440,0.745488,0.745760,0.736419,0.715729
268.000000,0.728916,0.740326,0.743878,0.736489,0.703741
269.000000,0.721146,0.736486,0.742186,0.736589,0.706738
270.000000,0.713087,0.731058,0.739871,0.736464,0.703297
271.000000,0.708447,0.726851,0.737873,0.736404,0.712732
272.000000,0.706938,0.722189,0.736025,0.736156,0.708181
273.000000,0.702542,0.715729,0.733011,0.734802,0.681763
274.000000,0.699123,0.710134,0.730586,0.733822,0.689644
275.000000,0.696770,0.704928,0.728083,0.732690,0.691531
276.000000,0.692974,0.700710,0.724914,0.731450,0.693751
277.000000,0.692285,0.699611,0.722550,0.730377,0.704740
278.000000,0.696703,0.699623,0.719974,0.729126,0.703852
279.000000,0.700477,0.699800,0.718143,0.728057,0.708514
280.000000,0.704118,0.700444,0.715751,0.726729,0.709735
281.000000,0.708381,0.700677,0.713764,0.725475,0.715063
282.000000,0.711222,0.701754,0.711971,0.724601,0.718948
283.000000,0.714708,0.705705,0.710717,0.723909,0.721279
284.000000,0.716239,0.708358,0.709246,0.723177,0.716173
285.000000,0.718260,0.711189,0.708059,0.722452,0.719836
286.000000,0.718748,0.713564,0.707137,0.721131,0.717505
287.000000,0.717860,0.714541,0.707076,0.719880,0.714508
288.000000,0.717016,0.715862,0.707742,0.718604,0.717061
289.000000,0.717949,0.717094,0.708447,0.717793,0.720835
290.000000,0.719414,0.718837,0.709640,0.716780,0.727162
291.000000,0.722811,0.720779,0.710728,0.716102,0.734488
292.000000,0.724942,0.721401,0.711577,0.715115,0.725164
293.000000,0.727495,0.722256,0.713980,0.714563,0.729826
294.000000,0.729693,0.723821,0.716089,0.714104,0.731824
295.000000,0.730225,0.724820,0.718004,0.713646,0.729826
296.000000,0.729249,0.726030,0.719797,0.713435,0.729604
297.000000,0.729759,0.727350,0.720946,0.713834,0.727717
298.000000,0.728227,0.727861,0.721861,0.714449,0.722167
299.000000,0.726252,0.727972,0.722533,0.714955,0.721945
300.000000,0.722700,0.726462,0.722650,0.715248,0.712066
301.000000,0.719991,0.724620,0.722700,0.715359,0.716062
302.000000,0.718659,0.724209,0.722805,0.715788,0.721057
303.000000,0.719569,0.723898,0.723077,0.717286,0.726718
304.000000,0.719170,0.722711,0.723266,0.718297,0.719947
305.000000,0.720302,0.721501,0.723160,0.719170,0.717727
306.000000,0.720835,0.720413,0.723221,0.720002,0.718726
307.000000,0.719125,0.718892,0.723121,0.720261,0.712510
308.000000,0.716217,0.717893,0.722877,0.720539,0.712177
309.000000,0.713353,0.716262,0.722117,0.720443,0.705628
310.000000,0.711200,0.715751,0.721107,0.720350,0.706960
311.000000,0.710134,0.715485,0.720052,0.720295,0.713398
312.000000,0.714375,0.716750,0.720480,0.720787,0.733711
313.000000,0.720790,0.718504,0.721201,0.721553,0.744256
314.000000,0.728716,0.721035,0.721873,0.722522,0.745255
315.000000,0.735354,0.723277,0.722389,0.723199,0.740149
316.000000,0.739283,0.724709,0.722561,0.723717,0.733045
317.000000,0.737773,0.726074,0.722483,0.724106,0.726163
318.000000,0.735109,0.727950,0.722922,0.724568,0.730936
319.000000,0.733111,0.730914,0.723588,0.725049,0.735265
320.000000,0.730958,0.733156,0.724453,0.725123,0.729382
321.000000,0.728028,0.733655,0.724570,0.724587,0.718393
322.000000,0.727517,0.732645,0.724698,0.724535,0.723610
323.000000,0.727917,0.731513,0.725008,0.724638,0.732934
324.000000,0.728272,0.730692,0.725863,0.724812,0.737041
325.000000,0.730181,0.730569,0.726923,0.725116,0.738928
326.000000,0.735420,0.731724,0.728216,0.725615,0.744589
327.000000,0.740815,0.734166,0.730120,0.726377,0.750583
328.000000,0.743412,0.735664,0.731807,0.727169,0.745921
329.000000,0.745543,0.736908,0.733911,0.728028,0.747697
330.000000,0.746809,0.738495,0.735825,0.729134,0.745255
331.000000,0.746409,0.740915,0.737285,0.730018,0.742591
332.000000,0.745299,0.743057,0.737851,0.730817,0.745033
333.000000,0.745788,0.744600,0.738056,0.731539,0.748363
334.000000,0.745410,0.745477,0.738084,0.732401,0.745810
335.000000,0.744389,0.745599,0.738084,0.733148,0.740149
336.000000,0.744034,0.745221,0.738473,0.733885,0.740815
337.000000,0.742369,0.743834,0.739000,0.734691,0.736708
338.000000,0.740282,0.743035,0.739350,0.735550,0.737929
339.000000,0.739194,0.742302,0.739605,0.736708,0.740371
340.000000,0.738994,0.741692,0.740093,0.737781,0.739150
341.000000,0.740682,0.742358,0.741636,0.738976,0.749251
342.000000,0.742058,0.742213,0.742635,0.739305,0.743590
343.000000,0.742724,0.741503,0.743051,0.739205,0.741259
344.000000,0.741126,0.740160,0.742818,0.738776,0.732379
345.000000,0.740127,0.739560,0.742580,0.738576,0.734155
346.000000,0.738195,0.739438,0.742330,0.738795,0.739594
347.000000,0.735576,0.738817,0.741325,0.738939,0.730492
348.000000,0.733888,0.738306,0.740670,0.739002,0.732823
349.000000,0.733755,0.737440,0.739871,0.738883,0.731713
350.000000,0.733422,0.736774,0.739233,0.738987,0.732490
351.000000,0.731913,0.735054,0.738706,0.739442,0.732046
352.000000,0.732246,0.733911,0.738062,0.739727,0.732157
353.000000,0.733023,0.733455,0.737479,0.739853,0.736708
354.000000,0.734510,0.734133,0.737146,0.739923,0.739150
355.000000,0.735642,0.734532,0.737046,0.739897,0.738151
356.000000,0.736242,0.734077,0.736758,0.739579,0.735043
357.000000,0.736708,0.734477,0.736647,0.739042,0.734488
358.000000,0.737063,0.735043,0.736674,0.738795,0.738484
359.000000,0.738217,0.736364,0.736902,0.738702,0.744922
360.000000,0.739838,0.737740,0.737257,0.738735,0.746254
361.000000,0.741858,0.739050,0.737052,0.738820,0.745144
362.000000,0.742813,0.739760,0.736835,0.738628,0.739261
363.000000,0.741858,0.739461,0.736458,0.738140,0.733711
364.000000,0.740304,0.739261,0.736697,0.737851,0.737152
365.000000,0.736774,0.738306,0.736419,0.737466,0.728605
366.000000,0.734998,0.738428,0.736253,0.737315,0.736264
367.000000,0.733822,0.738317,0.736397,0.737204,0.733378
368.000000,0.735109,0.738484,0.736763,0.737278,0.740149
369.000000,0.735598,0.737951,0.737157,0.737252,0.739594
370.000000,0.737263,0.737019,0.737379,0.737178,0.736930
371.000000,0.736530,0.735764,0.737407,0.736623,0.732601
372.000000,0.737241,0.735531,0.737646,0.736401,0.736930
373.000000,0.736419,0.735764,0.737612,0.736227,0.736042
374.000000,0.737263,0.736430,0.737845,0.736608,0.743812
375.000000,0.738639,0.737951,0.738129,0.736930,0.743812
376.000000,0.741991,0.739261,0.738844,0.737255,0.749362
377.000000,0.742768,0.740004,0.739161,0.737599,0.740815
378.000000,0.744234,0.740326,0.739405,0.737951,0.743368
379.000000,0.742924,0.740093,0.739022,0.738136,0.737263
380.000000,0.741214,0.739927,0.738473,0.738228,0.735265
381.000000,0.738573,0.740282,0.738023,0.738365,0.736153
382.000000,0.737507,0.740138,0.737834,0.738476,0.735487
383.000000,0.736131,0.740182,0.737973,0.738469,0.736486
384.000000,0.736397,0.739660,0.738045,0.738450,0.738595
385.000000,0.737685,0.739449,0.738700,0.738569,0.741703
386.000000,0.737751,0.738162,0.738711,0.738617,0.736486
387.000000,0.735021,0.736264,0.738134,0.738195,0.721834
388.000000,0.734355,0.735243,0.737784,0.738018,0.733156
389.000000,0.731824,0.734110,0.737102,0.737385,0.725941
390.000000,0.724964,0.731324,0.735625,0.736090,0.707404
391.000000,0.719014,0.728383,0.734332,0.734810,0.706738
392.000000,0.716262,0.725641,0.732889,0.733770,0.708070
393.000000,0.710601,0.722478,0.731330,0.732808,0.704851
394.000000,0.705073,0.718448,0.729054,0.731513,0.698302
395.000000,0.702631,0.713797,0.726623,0.730399,0.695194
396.000000,0.699167,0.709091,0.723626,0.728838,0.689422
397.000000,0.693196,0.704729,0.720496,0.726999,0.678211
398.000000,0.687934,0.699267,0.717255,0.724945,0.678544
399.000000,0.684538,0.694805,0.714458,0.723003,0.681319
400.000000,0.680852,0.691742,0.711533,0.720998,0.676768
401.000000,0.679543,0.689355,0.708869,0.719340,0.682873
402.000000,0.680608,0.686902,0.706272,0.717560,0.683539
403.000000,0.683339,0.685637,0.704057,0.716099,0.692197
404.000000,0.685070,0.684804,0.701626,0.714304,0.689977
405.000000,0.688134,0.684493,0.699145,0.712580,0.692086
406.000000,0.691664,0.685603,0.697347,0.710952,0.700522
407.000000,0.695127,0.687868,0.696298,0.709620,0.700855
408.000000,0.697214,0.690276,0.694772,0.708262,0.702631
409.000000,0.700588,0.692829,0.693817,0.707248,0.706849
410.000000,0.704540,0.696337,0.694039,0.706468,0.711844
411.000000,0.705961,0.698812,0.694084,0.705517,0.707626
412.000000,0.707715,0.701421,0.694161,0.704655,0.709624
413.000000,0.708425,0.702819,0.694228,0.703645,0.706183
414.000000,0.708514,0.704551,0.694678,0.702601,0.707293
415.000000,0.708136,0.706338,0.695416,0.701543,0.709957
416.000000,0.708691,0.707326,0.696465,0.700673,0.710401
417.000000,0.708891,0.708303,0.698085,0.700300,0.710623
418.000000,0.710068,0.709246,0.699761,0.699597,0.712066
419.000000,0.711888,0.710201,0.701515,0.699278,0.716395
420.000000,0.712354,0.710245,0.703291,0.699441,0.712288
421.000000,0.713997,0.711344,0.705078,0.699837,0.718615
422.000000,0.716617,0.712754,0.707087,0.700359,0.723721
423.000000,0.717860,0.713964,0.708392,0.700807,0.718282
424.000000,0.716395,0.714141,0.709346,0.701166,0.709069
425.000000,0.714996,0.713675,0.710007,0.701502,0.705295
426.000000,0.712887,0.713442,0.710384,0.702124,0.708070
427.000000,0.707337,0.711977,0.710140,0.702716,0.695971
428.000000,0.703008,0.710434,0.709840,0.703319,0.696637
429.000000,0.700144,0.708270,0.709235,0.703767,0.694750
430.000000,0.695593,0.705295,0.707770,0.703959,0.682540
431.000000,0.690731,0.701809,0.706577,0.703989,0.683761
432.000000,0.687313,0.697325,0.705039,0.703833,0.678877
433.000000,0.683849,0.693429,0.703696,0.703404,0.679321
434.000000,0.680186,0.690165,0.702153,0.702953,0.676435
435.000000,0.679099,0.687346,0.700511,0.702453,0.677101
436.000000,0.677411,0.684071,0.698757,0.701613,0.675325
437.000000,0.677900,0.682606,0.697292,0.700962,0.681319
438.000000,0.679121,0.681485,0.695960,0.700389,0.685426
439.000000,0.678588,0.679387,0.693828,0.699286,0.673771
440.000000,0.674725,0.676912,0.691103,0.697484,0.657787
441.000000,0.671373,0.674392,0.688101,0.695849,0.658564
442.000000,0.668554,0.673227,0.685276,0.694435,0.667222
443.000000,0.665179,0.672150,0.682789,0.693181,0.668554
444.000000,0.661294,0.669941,0.680053,0.691416,0.654346
445.000000,0.662759,0.668742,0.678044,0.689921,0.665113
446.000000,0.661050,0.666212,0.675142,0.687908,0.650017
447.000000,0.655256,0.661905,0.672256,0.685496,0.638251
448.000000,0.646265,0.655722,0.668604,0.682547,0.623599
449.000000,0.640582,0.650938,0.665163,0.679532,0.625930
450.000000,0.633300,0.648030,0.662471,0.676745,0.628705
451.000000,0.631280,0.646165,0.660279,0.674122,0.639916
452.000000,0.633944,0.644600,0.658913,0.671717,0.651571
453.000000,0.642513,0.644389,0.658270,0.669989,0.666445
454.000000,0.653302,0.646942,0.658442,0.669016,0.679876
455.000000,0.662071,0.647686,0.658214,0.667925,0.672550
456.000000,0.671240,0.651260,0.658736,0.667181,0.685759
457.000000,0.678388,0.656166,0.659035,0.666892,0.687313
458.000000,0.679121,0.660817,0.658270,0.666008,0.670108
459.000000,0.679121,0.666212,0.658575,0.665512,0.679876
460.000000,0.680098,0.671084,0.659557,0.665342,0.677434
461.000000,0.679942,0.675591,0.660878,0.665383,0.684982
462.000000,0.680653,0.679520,0.662060,0.665782,0.690865
463.000000,0.683672,0.681396,0.662893,0.665978,0.685204
464.000000,0.686025,0.682573,0.664757,0.666485,0.691642
465.000000,0.691819,0.685958,0.666822,0.667462,0.706405
466.000000,0.696459,0.688201,0.669730,0.668557,0.708181
467.000000,0.702076,0.691364,0.673765,0.669812,0.718948
468.000000,0.710556,0.697114,0.678965,0.671218,0.727606
469.000000,0.717105,0.701565,0.683888,0.672905,0.724387
470.000000,0.720502,0.706161,0.688622,0.675092,0.723388
471.000000,0.723055,0.709757,0.692674,0.677171,0.720946
472.000000,0.723188,0.712632,0.696076,0.678917,0.719614
473.000000,0.723033,0.716794,0.699095,0.680860,0.726829
474.000000,0.722433,0.719769,0.701171,0.683095,0.721390
475.000000,0.721678,0.721090,0.703524,0.684911,0.719614
476.000000,0.721234,0.722145,0.705173,0.687202,0.718726
477.000000,0.721834,0.722511,0.706938,0.690014,0.722611
478.000000,0.721523,0.722278,0.709696,0.693403,0.725275
479.000000,0.722145,0.722289,0.711927,0.696688,0.724498
480.000000,0.723166,0.722422,0.714291,0.699889,0.724720
481.000000,0.724276,0.722755,0.716256,0.702701,0.724276
482.000000,0.724276,0.723055,0.717843,0.705069,0.722611
483.000000,0.724298,0.722910,0.719852,0.707034,0.725386
484.000000,0.726873,0.724509,0.722139,0.708950,0.737374
485.000000,0.729715,0.726440,0.723765,0.711163,0.738928
486.000000,0.731957,0.728116,0.725130,0.712821,0.735487
487.000000,0.733689,0.728982,0.725746,0.714286,0.731269
488.000000,0.735709,0.730003,0.726141,0.716465,0.735487
489.000000,0.733400,0.730137,0.726213,0.717997,0.725830
490.000000,0.731424,0.730569,0.726496,0.719717,0.729049
491.000000,0.727828,0.729892,0.726324,0.720801,0.717505
492.000000,0.723343,0.728516,0.725785,0.721401,0.708847
493.000000,0.717927,0.726818,0.724864,0.722174,0.708403
494.000000,0.717638,0.725519,0.725014,0.723266,0.724387
495.000000,0.719703,0.725563,0.726002,0.724365,0.739372
496.000000,0.725230,0.726529,0.727323,0.725597,0.745144
497.000000,0.732401,0.727872,0.728427,0.726455,0.744700
498.000000,0.740437,0.729182,0.729593,0.727154,0.748585
499.000000,0.745543,0.731591,0.730864,0.728005,0.749917
500.000000,0.748318,0.734010,0.732290,0.729001,0.753247
501.000000,0.751093,0.738162,0.734027,0.730270,0.759019
502.000000,0.753336,0.742868,0.735692,0.731480,0.755911
503.000000,0.752004,0.746220,0.736519,0.731983,0.741925
504.000000,0.749983,0.747763,0.736641,0.732597,0.739816
505.000000,0.742746,0.745532,0.735548,0.732512,0.717061
506.000000,0.732823,0.741958,0.734244,0.732201,0.709402
507.000000,0.724342,0.738839,0.733356,0.731898,0.713509
508.000000,0.722722,0.737363,0.733272,0.732183,0.733822
509.000000,0.720102,0.735043,0.733317,0.732257,0.726718
510.000000,0.721812,0.732279,0.733145,0.732286,0.725608
511.000000,0.724609,0.728716,0.733439,0.732257,0.723388
512.000000,0.725319,0.724831,0.733849,0.732072,0.717061
513.000000,0.720147,0.721434,0.733827,0.731491,0.707959
514.000000,0.717927,0.719014,0.733389,0.730766,0.715618
515.000000,0.715351,0.718581,0.732057,0.729892,0.712732
516.000000,0.713509,0.719059,0.730508,0.729182,0.714175
517.000000,0.713753,0.719536,0.729187,0.728749,0.718282
518.000000,0.713709,0.716928,0.727145,0.727824,0.707737
519.000000,0.712155,0.715041,0.725042,0.727225,0.707848
520.000000,0.709224,0.712288,0.722283,0.726192,0.698080
521.000000,0.704229,0.708869,0.718792,0.725249,0.689200
522.000000,0.700433,0.707093,0.715962,0.724931,0.699301
523.000000,0.698990,0.706349,0.713892,0.724668,0.700522
524.000000,0.698479,0.705317,0.712166,0.724032,0.705295
525.000000,0.699767,0.704496,0.711538,0.722870,0.704518
526.000000,0.702276,0.703252,0.711156,0.721423,0.701743
527.000000,0.704074,0.702253,0.710895,0.720209,0.708292
528.000000,0.706782,0.702886,0.709907,0.719059,0.714064
529.000000,0.707026,0.702753,0.708897,0.717612,0.706516
530.000000,0.707604,0.703685,0.707986,0.716084,0.707404
531.000000,0.708625,0.705450,0.707160,0.714345,0.706849
532.000000,0.709202,0.706638,0.706865,0.712854,0.711178
533.000000,0.709713,0.708247,0.707298,0.712010,0.716617
534.000000,0.713265,0.710145,0.707731,0.711492,0.724276
535.000000,0.717927,0.712765,0.708630,0.711947,0.730714
536.000000,0.722722,0.715673,0.709463,0.712661,0.730825
537.000000,0.727384,0.718293,0.710273,0.713361,0.734488
538.000000,0.731180,0.720446,0.711666,0.713420,0.735598
539.000000,0.733511,0.723388,0.713070,0.713727,0.735931
540.000000,0.733555,0.725741,0.714713,0.713905,0.730936
541.000000,0.734488,0.728605,0.717027,0.714308,0.735487
542.000000,0.733822,0.730603,0.718620,0.714778,0.731158
543.000000,0.734332,0.732756,0.720502,0.715784,0.738151
544.000000,0.733422,0.733467,0.721806,0.716310,0.731380
545.000000,0.732912,0.733233,0.722999,0.716831,0.728383
546.000000,0.730181,0.732334,0.724004,0.717087,0.721834
547.000000,0.726629,0.730225,0.724259,0.716924,0.713398
548.000000,0.721479,0.727905,0.724176,0.717079,0.712399
549.000000,0.716728,0.725075,0.724231,0.717072,0.707626
550.000000,0.711711,0.722311,0.724026,0.717246,0.703297
551.000000,0.708447,0.719314,0.723959,0.717790,0.705517
552.000000,0.705850,0.716239,0.723421,0.717827,0.700411
553.000000,0.704984,0.713231,0.722994,0.718078,0.708070
554.000000,0.704673,0.710700,0.722083,0.718104,0.706072
555.000000,0.705983,0.708847,0.721040,0.718282,0.709846
556.000000,0.706161,0.707304,0.719819,0.718437,0.706405
557.000000,0.706449,0.706149,0.718187,0.718223,0.701854
558.000000,0.705561,0.705273,0.716589,0.717875,0.703630
559.000000,0.705317,0.704995,0.715035,0.717819,0.704851
560.000000,0.703164,0.704573,0.713442,0.717542,0.699079
561.000000,0.701698,0.703929,0.711622,0.717283,0.699079
562.000000,0.701587,0.704018,0.710129,0.716953,0.701299
563.000000,0.702276,0.703918,0.708575,0.716635,0.707071
564.000000,0.702320,0.703818,0.707259,0.715995,0.705073
565.000000,0.703807,0.703485,0.706166,0.715189,0.706516
566.000000,0.704185,0.702942,0.705123,0.714193,0.700966
567.000000,0.704629,0.703108,0.704629,0.713161,0.703519
568.000000,0.703319,0.702797,0.704035,0.711992,0.700522
569.000000,0.703097,0.702708,0.703852,0.710926,0.703963
570.000000,0.702387,0.703097,0.703835,0.709994,0.702964
571.000000,0.703141,0.703663,0.703796,0.708969,0.704740
572.000000,0.703252,0.703941,0.703979,0.708066,0.704074
573.000000,0.703674,0.703497,0.703707,0.706882,0.702631
574.000000,0.702742,0.702919,0.703369,0.705813,0.699301
575.000000,0.702031,0.702209,0.702847,0.704847,0.699412
576.000000,0.700588,0.701865,0.702403,0.704037,0.697525
577.000000,0.699212,0.701232,0.702170,0.703497,0.697192
578.000000,0.697924,0.700799,0.701798,0.702956,0.696193
579.000000,0.697658,0.700200,0.701454,0.702634,0.697969
580.000000,0.697502,0.699767,0.701432,0.702479,0.698635
581.000000,0.698501,0.699545,0.701604,0.702379,0.702520
582.000000,0.698457,0.698834,0.701388,0.702264,0.696970
583.000000,0.698590,0.698257,0.700877,0.701891,0.696859
584.000000,0.697858,0.697758,0.700339,0.701499,0.694306
585.000000,0.695926,0.696714,0.699462,0.700803,0.688978
586.000000,0.697613,0.698057,0.699961,0.700955,0.710956
587.000000,0.700211,0.699334,0.700283,0.701225,0.709957
588.000000,0.700699,0.699645,0.700222,0.701080,0.699301
589.000000,0.701920,0.699889,0.700044,0.700932,0.700411
590.000000,0.703985,0.699956,0.699861,0.700940,0.699301
591.000000,0.702009,0.699811,0.699678,0.701006,0.701077
592.000000,0.700011,0.700111,0.699473,0.700962,0.699967
593.000000,0.701143,0.700921,0.699589,0.700892,0.704962
594.000000,0.703874,0.702897,0.700327,0.701191,0.714064
595.000000,0.708780,0.706383,0.701548,0.701769,0.723832
596.000000,0.713309,0.707659,0.702858,0.702527,0.723721
597.000000,0.719081,0.709546,0.704440,0.703371,0.728827
598.000000,0.724809,0.712976,0.706310,0.704473,0.733600
599.000000,0.727317,0.715596,0.707742,0.705228,0.726607
600.000000,0.726673,0.717727,0.708841,0.705816,0.720613
601.000000,0.725119,0.719214,0.709513,0.706190,0.715951
602.000000,0.721368,0.720224,0.710168,0.706390,0.710068
603.000000,0.717793,0.721301,0.711111,0.706827,0.715729
604.000000,0.715640,0.721479,0.712188,0.707378,0.715840
605.000000,0.713087,0.719880,0.713131,0.707659,0.707848
606.000000,0.711755,0.718437,0.713048,0.708051,0.709291
607.000000,0.711711,0.716539,0.713043,0.708473,0.709846
608.000000,0.710956,0.714375,0.713675,0.708998,0.711955
609.000000,0.709690,0.712665,0.714130,0.709383,0.709513
610.000000,0.710823,0.711955,0.714841,0.709879,0.713509
611.000000,0.710490,0.711122,0.715168,0.710049,0.707626
612.000000,0.710934,0.711322,0.715773,0.710552,0.712066
613.000000,0.711156,0.711056,0.716178,0.711093,0.713065
614.000000,0.713065,0.711378,0.716428,0.711918,0.719059
615.000000,0.713731,0.712277,0.716078,0.712846,0.716839
616.000000,0.714885,0.712687,0.715562,0.712928,0.713398
617.000000,0.716550,0.713742,0.715140,0.713276,0.720391
618.000000,0.717816,0.714486,0.714430,0.713945,0.719392
619.000000,0.718903,0.715984,0.714325,0.714748,0.724498
620.000000,0.720480,0.717105,0.714530,0.715596,0.724720
621.000000,0.723210,0.719048,0.715085,0.716461,0.727051
622.000000,0.723832,0.720191,0.715756,0.717246,0.723499
623.000000,0.723033,0.720424,0.715740,0.717594,0.715396
624.000000,0.720835,0.719869,0.715623,0.717575,0.713509
625.000000,0.719037,0.719758,0.716017,0.717305,0.715729
626.000000,0.715129,0.719170,0.715929,0.716765,0.707515
627.000000,0.711999,0.717915,0.715829,0.716065,0.707848
628.000000,0.710667,0.716850,0.715668,0.715237,0.708736
629.000000,0.709579,0.715207,0.715596,0.714619,0.708070
630.000000,0.708159,0.713598,0.715351,0.714219,0.708625
631.000000,0.709402,0.712266,0.715657,0.714145,0.713731
632.000000,0.708669,0.710334,0.715263,0.713949,0.704185
633.000000,0.707692,0.709180,0.714802,0.713553,0.703852
634.000000,0.707448,0.708514,0.714191,0.713253,0.706849
635.000000,0.708381,0.708270,0.714014,0.713435,0.713287
636.000000,0.707581,0.708492,0.713831,0.713450,0.709735
637.000000,0.708691,0.708680,0.713298,0.713446,0.709735
638.000000,0.710667,0.709180,0.713015,0.713505,0.713731
639.000000,0.711222,0.709335,0.712271,0.713509,0.709624
640.000000,0.710556,0.709468,0.711533,0.713390,0.709957
641.000000,0.708647,0.708114,0.710190,0.713142,0.700189
642.000000,0.706560,0.707626,0.708980,0.712717,0.699301
643.000000,0.702475,0.706571,0.707875,0.712058,0.693307
644.000000,0.697636,0.704429,0.706471,0.710937,0.685426
645.000000,0.691908,0.701232,0.704751,0.709753,0.681319
646.000000,0.690176,0.699412,0.703952,0.709024,0.691531
647.000000,0.697613,0.702087,0.705384,0.709561,0.736486
648.000000,0.708802,0.705639,0.707409,0.710556,0.749251
649.000000,0.722211,0.709923,0.709629,0.711489,0.752470
650.000000,0.735309,0.713609,0.711538,0.712225,0.746809
651.000000,0.747808,0.718992,0.713553,0.713124,0.754024
652.000000,0.753269,0.725441,0.716533,0.714467,0.763792
653.000000,0.755200,0.732001,0.719286,0.715917,0.758908
654.000000,0.757420,0.739816,0.722122,0.717586,0.763570
655.000000,0.763281,0.749295,0.725264,0.719599,0.776113
656.000000,0.766056,0.756932,0.728172,0.721612,0.767899
657.000000,0.765990,0.759629,0.730858,0.723465,0.763459
658.000000,0.767455,0.761328,0.733483,0.725382,0.766234
659.000000,0.769852,0.763636,0.736780,0.727632,0.775558
660.000000,0.770230,0.766755,0.740182,0.729944,0.778000
661.000000,0.771673,0.768864,0.743928,0.731990,0.775114
662.000000,0.772405,0.769197,0.747319,0.734088,0.767122
663.000000,0.770274,0.768864,0.750433,0.735812,0.755578
664.000000,0.765257,0.767555,0.753685,0.737266,0.750472
665.000000,0.756510,0.763370,0.756333,0.737966,0.734266
666.000000,0.746986,0.759330,0.758131,0.738558,0.727495
667.000000,0.741658,0.757032,0.758331,0.739583,0.740482
668.000000,0.740748,0.755511,0.758419,0.740826,0.751027
669.000000,0.740970,0.753114,0.758375,0.742224,0.751582
670.000000,0.743656,0.750083,0.758419,0.743482,0.747697
671.000000,0.744234,0.745610,0.757237,0.744489,0.730381
672.000000,0.743723,0.742691,0.755944,0.745776,0.737929
673.000000,0.743101,0.741925,0.755395,0.747597,0.747919
674.000000,0.742125,0.741547,0.754551,0.749639,0.746698
675.000000,0.743590,0.743623,0.753497,0.752096,0.755023
676.000000,0.747985,0.746109,0.752720,0.754124,0.752359
677.000000,0.748940,0.746331,0.751682,0.754331,0.742702
678.000000,0.748984,0.746043,0.750777,0.754294,0.748141
679.000000,0.747763,0.744944,0.749029,0.753898,0.740593
680.000000,0.748629,0.746109,0.748096,0.754316,0.759352
681.000000,0.751426,0.749706,0.747658,0.754727,0.766345
682.000000,0.754779,0.751859,0.747275,0.754582,0.759463
683.000000,0.754224,0.751604,0.746764,0.754131,0.745366
684.000000,0.756244,0.752004,0.746775,0.753702,0.750694
685.000000,0.752536,0.750583,0.747103,0.752525,0.740815
686.000000,0.747297,0.749362,0.747736,0.751600,0.740149
687.000000,0.741037,0.747908,0.747120,0.750424,0.728161
688.000000,0.737440,0.745832,0.745937,0.749129,0.727384
689.000000,0.729715,0.742979,0.743962,0.747012,0.712066
690.000000,0.725719,0.739128,0.742618,0.745107,0.720835
691.000000,0.724120,0.735709,0.742707,0.743675,0.732157
692.000000,0.727761,0.734399,0.743129,0.742983,0.746365
693.000000,0.733200,0.735320,0.743462,0.742950,0.754579
694.000000,0.742657,0.736186,0.744095,0.743246,0.759352
695.000000,0.748740,0.737229,0.743906,0.743812,0.751249
696.000000,0.754779,0.739449,0.744406,0.744974,0.762349
697.000000,0.760084,0.743923,0.745915,0.746054,0.772894
698.000000,0.765146,0.749173,0.747502,0.747016,0.779887
699.000000,0.769941,0.756299,0.749639,0.748074,0.783328
700.000000,0.775447,0.762093,0.750611,0.749110,0.778777
701.000000,0.777645,0.766212,0.750960,0.750542,0.773338
702.000000,0.777778,0.768931,0.751665,0.751730,0.773560
703.000000,0.776845,0.770996,0.753158,0.752640,0.775225
704.000000,0.775558,0.772749,0.754468,0.753646,0.776890
705.000000,0.776290,0.775869,0.756549,0.754560,0.782440
706.000000,0.776734,0.777189,0.758319,0.755334,0.775558
707.000000,0.780286,0.779032,0.761477,0.756954,0.791320
708.000000,0.783750,0.780297,0.764735,0.758434,0.792541
709.000000,0.786658,0.781108,0.768704,0.760129,0.791431
710.000000,0.787679,0.781985,0.772039,0.761069,0.787546
711.000000,0.792075,0.784404,0.775308,0.762108,0.797536
712.000000,0.794406,0.787346,0.778139,0.763559,0.802975
713.000000,0.799201,0.791475,0.781235,0.765930,0.816517
714.000000,0.809013,0.797835,0.785292,0.768924,0.840493
715.000000,0.817471,0.802575,0.789222,0.771891,0.829837
716.000000,0.820535,0.806305,0.791747,0.774315,0.812854
717.000000,0.822999,0.808702,0.793867,0.777219,0.815296
718.000000,0.822333,0.810767,0.795532,0.780079,0.813187
719.000000,0.815074,0.812044,0.796576,0.783150,0.804196
720.000000,0.811255,0.814363,0.798174,0.786147,0.810745
721.000000,0.810878,0.815707,0.800056,0.788774,0.810967
722.000000,0.804995,0.813997,0.800672,0.790091,0.785881
723.000000,0.801132,0.811733,0.801604,0.791401,0.793873
724.000000,0.800355,0.807715,0.802775,0.792766,0.800311
725.000000,0.797980,0.804618,0.803596,0.794354,0.798868
726.000000,0.798801,0.804840,0.805572,0.796111,0.815074
727.000000,0.805195,0.805095,0.806899,0.797610,0.817849
728.000000,0.811344,0.806238,0.808503,0.799101,0.824620
729.000000,0.815229,0.807792,0.809918,0.800315,0.819736
730.000000,0.820357,0.809169,0.811766,0.801839,0.824509
731.000000,0.823554,0.811178,0.813442,0.803763,0.831058
732.000000,0.826507,0.815851,0.814924,0.805731,0.832612
733.000000,0.826929,0.819136,0.815435,0.807448,0.826729
734.000000,0.829415,0.822322,0.815018,0.809291,0.832168
735.000000,0.828638,0.824498,0.814558,0.810564,0.820624
736.000000,0.825508,0.824531,0.814685,0.811892,0.815407
737.000000,0.824043,0.825275,0.815185,0.813024,0.825286
738.000000,0.823465,0.825197,0.815718,0.814067,0.823843
739.000000,0.820424,0.824920,0.816356,0.814918,0.816961
740.000000,0.818537,0.823588,0.816378,0.815707,0.811189
741.000000,0.818470,0.821989,0.816583,0.816291,0.815074
742.000000,0.815163,0.819603,0.817727,0.816484,0.808747
743.000000,0.811455,0.817460,0.818298,0.816110,0.805306
744.000000,0.810256,0.815340,0.818831,0.815126,0.810967
745.000000,0.811078,0.814807,0.819653,0.814641,0.815296
746.000000,0.808480,0.813475,0.819003,0.814282,0.802087
747.000000,0.804595,0.809879,0.817577,0.813416,0.789322
748.000000,0.802620,0.807037,0.816117,0.812824,0.795427
749.000000,0.800955,0.805606,0.815263,0.812772,0.802642
750.000000,0.800977,0.806027,0.814807,0.812928,0.815407
751.000000,0.803286,0.805883,0.813936,0.813017,0.813631
752.000000,0.809058,0.806827,0.813215,0.814093,0.818182
753.000000,0.814341,0.808480,0.812970,0.815026,0.821845
754.000000,0.817249,0.809102,0.812221,0.815588,0.817183
755.000000,0.815451,0.808214,0.811511,0.815840,0.806416
756.000000,0.812743,0.808014,0.810745,0.815340,0.800089
757.000000,0.808214,0.808636,0.809257,0.814597,0.795538
758.000000,0.801865,0.808103,0.807570,0.813446,0.790099
759.000000,0.793296,0.805273,0.805439,0.811933,0.774337
760.000000,0.787146,0.801299,0.803663,0.810305,0.775669
761.000000,0.782129,0.797436,0.801659,0.808436,0.775003
762.000000,0.778066,0.793140,0.799983,0.806523,0.775225
763.000000,0.773027,0.787446,0.797963,0.804462,0.764902
764.000000,0.770785,0.782040,0.795571,0.802161,0.763126
765.000000,0.766767,0.776956,0.792585,0.799993,0.755578
766.000000,0.762993,0.772561,0.790287,0.798017,0.756133
767.000000,0.758530,0.768298,0.788467,0.795604,0.752914
768.000000,0.753624,0.763326,0.785714,0.792822,0.740371
769.000000,0.752514,0.761649,0.783461,0.790842,0.757576
770.000000,0.749828,0.758297,0.779798,0.788541,0.742147
771.000000,0.755089,0.759041,0.778238,0.787453,0.782440
772.000000,0.760462,0.759496,0.776318,0.786488,0.779776
773.000000,0.769275,0.761450,0.774448,0.785792,0.784438
774.000000,0.779598,0.766056,0.774048,0.785733,0.809191
775.000000,0.791697,0.770763,0.773859,0.785311,0.802642
776.000000,0.793540,0.774315,0.773438,0.784963,0.791653
777.000000,0.799978,0.780220,0.774259,0.785718,0.811966
778.000000,0.803463,0.786369,0.774847,0.785933,0.801865
779.000000,0.799512,0.789555,0.775602,0.785492,0.789433
780.000000,0.801110,0.796404,0.777350,0.785333,0.810634
781.000000,0.807970,0.800755,0.779898,0.785744,0.825952
782.000000,0.810279,0.805128,0.782312,0.785921,0.823510
783.000000,0.814896,0.809180,0.785315,0.786025,0.824953
784.000000,0.824176,0.811844,0.788950,0.786647,0.835831
785.000000,0.826218,0.813664,0.792213,0.787128,0.820846
786.000000,0.823909,0.815940,0.795127,0.787605,0.814408
787.000000,0.821934,0.816106,0.798163,0.788208,0.813631
788.000000,0.818737,0.816817,0.801593,0.788837,0.808969
789.000000,0.813187,0.818681,0.804118,0.789962,0.808081
790.000000,0.810789,0.818504,0.807454,0.791068,0.808858
791.000000,0.811988,0.817949,0.809352,0.792581,0.820402
792.000000,0.814297,0.818115,0.811622,0.794246,0.825175
793.000000,0.815296,0.817016,0.813098,0.795882,0.813964
794.000000,0.817316,0.815251,0.813548,0.797717,0.818182
795.000000,0.820935,0.815862,0.814763,0.800096,0.826951
796.000000,0.822045,0.817016,0.816478,0.802424,0.825952
797.000000,0.823954,0.819125,0.817616,0.805150,0.834721
798.000000,0.829881,0.822589,0.819703,0.808591,0.843601
799.000000,0.834343,0.825830,0.822256,0.811355,0.840493
800.000000,0.837207,0.829071,0.823787,0.814659,0.841270
801.000000,0.840404,0.831224,0.824587,0.816643,0.841936
802.000000,0.840781,0.832368,0.825241,0.818537,0.836608
803.000000,0.840293,0.835087,0.826052,0.820428,0.841159
804.000000,0.839227,0.836785,0.826018,0.821294,0.835165
805.000000,0.840049,0.838628,0.827245,0.822718,0.845377
806.000000,0.841603,0.841003,0.829010,0.824653,0.849706
807.000000,0.845799,0.843290,0.831208,0.826174,0.857587
808.000000,0.848263,0.844278,0.833433,0.827894,0.853480
809.000000,0.853014,0.846121,0.835975,0.830211,0.858919
810.000000,0.857254,0.848651,0.838861,0.832075,0.866578
811.000000,0.860784,0.851193,0.841209,0.833455,0.867355
812.000000,0.861072,0.853435,0.842902,0.834639,0.859030
813.000000,0.864225,0.856244,0.845665,0.836116,0.869242
814.000000,0.866733,0.859873,0.848329,0.837303,0.871462
815.000000,0.868198,0.862726,0.850677,0.839072,0.873904
816.000000,0.868798,0.864791,0.852897,0.840937,0.870352
817.000000,0.872572,0.866822,0.855056,0.843079,0.877900
818.000000,0.873904,0.869064,0.856671,0.845310,0.875902
819.000000,0.872194,0.869464,0.857792,0.847138,0.862915
820.000000,0.870529,0.869364,0.859008,0.849029,0.865579
821.000000,0.868176,0.868487,0.859840,0.850302,0.858586
822.000000,0.864336,0.868454,0.860945,0.851419,0.858697
823.000000,0.860895,0.867399,0.861822,0.852910,0.858697
824.000000,0.860562,0.866378,0.863126,0.854346,0.861250
825.000000,0.861028,0.865779,0.864252,0.855711,0.867910
826.000000,0.863470,0.865823,0.865307,0.857206,0.870796
827.000000,0.867666,0.866001,0.866411,0.858704,0.879676
828.000000,0.872705,0.866800,0.867932,0.860047,0.883894
829.000000,0.876834,0.868698,0.869081,0.861427,0.881896
830.000000,0.880342,0.870685,0.870024,0.862900,0.885448
831.000000,0.880630,0.872050,0.870269,0.863910,0.872239
832.000000,0.881585,0.874625,0.871540,0.865505,0.884449
833.000000,0.880231,0.876468,0.871934,0.866704,0.877123
834.000000,0.881296,0.879065,0.872722,0.868439,0.887224
835.000000,0.881718,0.881030,0.873404,0.869845,0.887557
836.000000,0.883294,0.881962,0.873893,0.870859,0.880120
837.000000,0.875125,0.878355,0.872178,0.870393,0.843601
838.000000,0.870307,0.875269,0.871035,0.870378,0.853036
839.000000,0.861028,0.871162,0.869930,0.869775,0.840826
840.000000,0.851260,0.866489,0.868587,0.868846,0.838717
841.000000,0.844089,0.863692,0.867871,0.868076,0.844267
842.000000,0.844711,0.859918,0.867272,0.867666,0.846709
843.000000,0.844045,0.857176,0.866822,0.867014,0.849706
844.000000,0.846997,0.854013,0.866539,0.866485,0.855589
845.000000,0.849817,0.850538,0.865784,0.865782,0.852814
846.000000,0.853302,0.848696,0.865329,0.865494,0.861694
847.000000,0.854834,0.849772,0.864064,0.864709,0.854368
848.000000,0.856721,0.850383,0.862826,0.864151,0.859141
849.000000,0.852991,0.849994,0.860578,0.863285,0.836941
850.000000,0.849484,0.849650,0.858070,0.862275,0.835276
851.000000,0.843312,0.848307,0.856000,0.861350,0.830836
852.000000,0.839671,0.847253,0.853585,0.860599,0.836164
853.000000,0.833877,0.845299,0.851238,0.859648,0.830170
854.000000,0.836053,0.844522,0.849267,0.859200,0.847819
855.000000,0.838495,0.843989,0.847264,0.858519,0.847486
856.000000,0.842002,0.842657,0.845677,0.857772,0.848374
857.000000,0.846021,0.842846,0.846309,0.856991,0.856255
858.000000,0.851504,0.842691,0.846537,0.856114,0.857587
859.000000,0.853347,0.844700,0.847347,0.855285,0.857032
860.000000,0.855567,0.847031,0.848341,0.854390,0.858586
861.000000,0.857276,0.849639,0.848973,0.853879,0.856921
862.000000,0.857165,0.851593,0.849423,0.852921,0.855700
863.000000,0.857676,0.854590,0.849944,0.852355,0.860140
864.000000,0.858808,0.856077,0.850300,0.851537,0.862693
865.000000,0.859785,0.857676,0.850833,0.850734,0.863470
866.000000,0.862005,0.859640,0.851149,0.850331,0.868021
867.000000,0.861316,0.859241,0.851043,0.850620,0.852259
868.000000,0.858985,0.858331,0.850511,0.850468,0.848485
869.000000,0.855877,0.857343,0.851021,0.850679,0.847153
870.000000,0.853014,0.856399,0.851715,0.851027,0.849151
871.000000,0.848907,0.855456,0.852547,0.851134,0.847486
872.000000,0.850771,0.856044,0.853818,0.851630,0.861583
873.000000,0.853524,0.856255,0.855422,0.852048,0.862249
874.000000,0.857942,0.856910,0.856494,0.852503,0.869242
875.000000,0.866023,0.859518,0.858597,0.853728,0.889555
876.000000,0.866911,0.857909,0.858775,0.853402,0.851926
877.000000,0.860206,0.855489,0.857365,0.852525,0.828061
878.000000,0.855789,0.854656,0.856494,0.851893,0.840160
879.000000,0.852259,0.855100,0.856222,0.852381,0.851593
880.000000,0.850017,0.858020,0.857209,0.853817,0.878344
881.000000,0.855389,0.861150,0.858303,0.855415,0.878788
882.000000,0.864535,0.862371,0.859207,0.856669,0.873793
883.000000,0.871306,0.863548,0.859901,0.858131,0.874015
884.000000,0.875236,0.863747,0.860329,0.858911,0.871240
885.000000,0.876701,0.863359,0.861439,0.860184,0.885670
886.000000,0.878988,0.867188,0.862549,0.861579,0.890221
887.000000,0.882739,0.873637,0.864563,0.862789,0.892552
888.000000,0.886047,0.878677,0.866667,0.863888,0.890554
889.000000,0.889821,0.882529,0.868815,0.864991,0.890110
890.000000,0.890110,0.883405,0.870713,0.865941,0.887113
891.000000,0.889466,0.884227,0.872688,0.866944,0.887002
892.000000,0.887712,0.885226,0.873798,0.867880,0.883783
893.000000,0.887868,0.886957,0.875253,0.868920,0.891331
894.000000,0.887313,0.888567,0.876157,0.869741,0.887335
895.000000,0.888511,0.889311,0.876335,0.870729,0.893107
896.000000,0.888600,0.889033,0.878111,0.871377,0.887446
897.000000,0.890110,0.888911,0.881274,0.872679,0.891331
898.000000,0.888822,0.888345,0.883511,0.873893,0.884893
899.000000,0.887579,0.887446,0.884987,0.875025,0.881119
900.000000,0.882517,0.885514,0.884460,0.875647,0.867799
901.000000,0.876723,0.882662,0.883444,0.876013,0.858475
902.000000,0.868531,0.879321,0.882273,0.875639,0.850372
903.000000,0.861649,0.875236,0.881097,0.875247,0.850483
904.000000,0.855877,0.871728,0.880148,0.874681,0.852259
905.000000,0.852348,0.867433,0.878372,0.873367,0.850150
906.000000,0.849750,0.863237,0.876135,0.873153,0.845488
907.000000,0.848352,0.858442,0.873676,0.873663,0.843379
908.000000,0.847464,0.854557,0.871451,0.873859,0.846043
909.000000,0.845954,0.850916,0.869181,0.873630,0.844711
910.000000,0.843712,0.848030,0.866772,0.872317,0.838939
911.000000,0.842224,0.845987,0.864325,0.870959,0.838051
912.000000,0.840404,0.844378,0.861849,0.869641,0.834277
913.000000,0.839449,0.843457,0.859346,0.868550,0.841270
914.000000,0.841070,0.843512,0.857620,0.867936,0.852814
915.000000,0.843734,0.843723,0.855578,0.866822,0.852259
916.000000,0.847286,0.844755,0.853996,0.865675,0.855811
917.000000,0.852126,0.846265,0.852353,0.864539,0.858475
918.000000,0.856099,0.847774,0.851166,0.863559,0.861139
919.000000,0.858852,0.849961,0.850438,0.862774,0.866578
920.000000,0.862604,0.853169,0.850599,0.862238,0.871018
921.000000,0.866334,0.856810,0.851399,0.861820,0.874459
922.000000,0.869331,0.860728,0.852553,0.861476,0.873460
923.000000,0.870219,0.863159,0.853308,0.860617,0.865579
924.000000,0.869997,0.864424,0.853968,0.859888,0.865468
925.000000,0.871528,0.867066,0.855395,0.859407,0.878677
926.000000,0.873038,0.869686,0.857221,0.859226,0.882007
927.000000,0.876590,0.872960,0.859613,0.859222,0.891220
928.000000,0.879321,0.874770,0.861272,0.859034,0.879232
929.000000,0.878188,0.874093,0.862027,0.858323,0.859807
930.000000,0.876745,0.874137,0.863653,0.858445,0.871462
931.000000,0.872483,0.872761,0.864785,0.858519,0.860695
932.000000,0.866001,0.871295,0.866012,0.858800,0.858808
933.000000,0.863092,0.871207,0.867183,0.859274,0.864691
934.000000,0.863403,0.870796,0.867610,0.859577,0.861361
935.000000,0.863625,0.870185,0.868626,0.860325,0.872572
936.000000,0.866245,0.869364,0.869525,0.861268,0.873793
937.000000,0.868576,0.867288,0.870124,0.862171,0.870463
938.000000,0.872039,0.867566,0.871168,0.863370,0.882007
939.000000,0.874681,0.869042,0.871567,0.864365,0.874570
940.000000,0.873460,0.868543,0.871340,0.865283,0.866467
941.000000,0.871284,0.868765,0.870763,0.866112,0.862915
942.000000,0.871706,0.870141,0.870718,0.867388,0.872572
943.000000,0.866711,0.869375,0.870291,0.867914,0.857032
944.000000,0.863647,0.869164,0.869980,0.868128,0.859252
945.000000,0.862093,0.867777,0.868981,0.868343,0.858697
946.000000,0.858453,0.864868,0.867116,0.867973,0.844711
947.000000,0.852903,0.862304,0.864796,0.867518,0.844822
948.000000,0.851637,0.859174,0.863370,0.867170,0.850705
949.000000,0.847708,0.855678,0.862360,0.866271,0.839605
950.000000,0.844578,0.853336,0.860939,0.865338,0.843046
951.000000,0.842291,0.850372,0.859568,0.863966,0.833278
952.000000,0.841292,0.847097,0.858619,0.862845,0.839827
953.000000,0.838961,0.845299,0.857337,0.861960,0.839050
954.000000,0.839827,0.843767,0.856466,0.861242,0.843934
955.000000,0.840382,0.842480,0.855128,0.860147,0.845821
956.000000,0.843312,0.842802,0.853835,0.859011,0.847930
957.000000,0.845133,0.843212,0.852758,0.857602,0.848929
958.000000,0.845976,0.842469,0.850821,0.856403,0.843268
959.000000,0.848485,0.844156,0.849917,0.856292,0.856477
960.000000,0.850261,0.845321,0.849328,0.855733,0.854701
961.000000,0.851615,0.847464,0.848918,0.855533,0.854701
962.000000,0.851149,0.848141,0.847619,0.855126,0.846598
963.000000,0.851837,0.848907,0.847103,0.854527,0.846709
964.000000,0.842646,0.845566,0.844666,0.852832,0.810523
965.000000,0.830303,0.840282,0.841381,0.850179,0.792985
966.000000,0.816139,0.833877,0.838339,0.847182,0.783883
967.000000,0.804262,0.827706,0.835459,0.844407,0.787213
968.000000,0.792252,0.822045,0.832257,0.841229,0.786658
969.000000,0.788678,0.815662,0.829909,0.838499,0.792652
970.000000,0.795094,0.812698,0.829010,0.837118,0.825064
971.000000,0.806460,0.811300,0.829382,0.836378,0.840715
972.000000,0.815762,0.810012,0.829076,0.835083,0.833722
973.000000,0.817005,0.804629,0.826768,0.832945,0.792874
974.000000,0.817982,0.803330,0.824448,0.830888,0.797536
975.000000,0.816162,0.805628,0.822955,0.829463,0.815962
976.000000,0.810922,0.808691,0.821284,0.828457,0.814519
977.000000,0.807504,0.811633,0.819669,0.827517,0.816628
978.000000,0.812277,0.814641,0.818343,0.826385,0.816739
979.000000,0.816273,0.817127,0.816395,0.825648,0.817516
980.000000,0.817893,0.817027,0.814863,0.825016,0.824065
981.000000,0.822577,0.816750,0.814025,0.825171,0.837940
982.000000,0.828083,0.817793,0.813903,0.825315,0.844156
983.000000,0.833611,0.822944,0.813786,0.825493,0.844378
984.000000,0.839871,0.828072,0.815701,0.825656,0.848818
985.000000,0.843068,0.830481,0.818054,0.825463,0.840049
986.000000,0.837940,0.830259,0.819475,0.824276,0.812299
987.000000,0.833566,0.830825,0.821229,0.823388,0.822289
988.000000,0.829748,0.831679,0.823160,0.822788,0.825286
989.000000,0.822888,0.831380,0.824254,0.821390,0.814519
990.000000,0.818715,0.830891,0.823959,0.820206,0.819181
991.000000,0.819381,0.828660,0.822705,0.818903,0.815629
992.000000,0.819647,0.826607,0.822200,0.818137,0.823621
993.000000,0.820535,0.825142,0.824043,0.817571,0.829726
994.000000,0.823266,0.823077,0.825574,0.818160,0.828172
995.000000,0.824531,0.821623,0.826052,0.819244,0.825508
996.000000,0.823576,0.821479,0.825869,0.820143,0.810856
997.000000,0.820824,0.820235,0.825530,0.820898,0.809857
998.000000,0.816783,0.818659,0.825169,0.821660,0.809524
999.000000,0.814985,0.819125,0.825253,0.822544,0.819181
1000.000000,0.814119,0.819325,0.825108,0.822415,0.821179
1001.000000,0.814807,0.819192,0.823926,0.821534,0.814297
1002.000000,0.814941,0.817882,0.822244,0.820761,0.810523
1003.000000,0.816450,0.816617,0.820879,0.821567,0.817072
1004.000000,0.817272,0.816128,0.819603,0.822426,0.823288
1005.000000,0.816694,0.815407,0.818515,0.822503,0.818293
1006.000000,0.817427,0.816117,0.818798,0.822618,0.817960
1007.000000,0.818382,0.816661,0.818448,0.822574,0.815296
1008.000000,0.817072,0.816761,0.817710,0.822367,0.810523
1009.000000,0.817205,0.817238,0.818182,0.822581,0.823954
1010.000000,0.816650,0.816672,0.817999,0.822296,0.815518
1011.000000,0.816228,0.816828,0.818010,0.821560,0.815851
1012.000000,0.816739,0.817560,0.817721,0.820683,0.817849
1013.000000,0.816295,0.816683,0.816650,0.819481,0.808303
1014.000000,0.813653,0.815429,0.815779,0.818211,0.810745
1015.000000,0.813342,0.814996,0.815201,0.817342,0.813964
1016.000000,0.813342,0.814785,0.815451,0.817460,0.815851
1017.000000,0.812587,0.814663,0.815662,0.817187,0.814075
1018.000000,0.814053,0.815174,0.815967,0.816865,0.815629
1019.000000,0.813364,0.813509,0.815374,0.816624,0.807304
1020.000000,0.809613,0.811477,0.814075,0.815825,0.795205
1021.000000,0.807282,0.810312,0.813570,0.815444,0.804196
1022.000000,0.807726,0.810157,0.813858,0.815200,0.816295
1023.000000,0.807615,0.810834,0.813758,0.814711,0.815074
1024.000000,0.808924,0.811144,0.813287,0.814234,0.813853
1025.000000,0.812920,0.811267,0.813131,0.813890,0.815185
1026.000000,0.813564,0.810423,0.812604,0.813775,0.807415
1027.000000,0.812299,0.810012,0.812338,0.813779,0.809968
1028.000000,0.813431,0.810523,0.812848,0.814153,0.820735
1029.000000,0.813453,0.811189,0.812349,0.813979,0.813964
1030.000000,0.814208,0.813564,0.812521,0.813905,0.818959
1031.000000,0.815562,0.814563,0.812438,0.813901,0.814186
1032.000000,0.815029,0.813664,0.811910,0.813794,0.807304
1033.000000,0.814164,0.813797,0.812315,0.813771,0.816406
1034.000000,0.814696,0.814075,0.812610,0.813549,0.816628
1035.000000,0.816939,0.815573,0.813420,0.813945,0.830170
1036.000000,0.819336,0.817449,0.813936,0.814219,0.826174
1037.000000,0.821778,0.818404,0.814208,0.814360,0.819514
1038.000000,0.821001,0.817582,0.814053,0.814426,0.812521
1039.000000,0.822400,0.818548,0.814868,0.814415,0.823621
1040.000000,0.820424,0.818681,0.816123,0.814574,0.820291
1041.000000,0.820779,0.820058,0.817310,0.814978,0.827950
1042.000000,0.821734,0.821756,0.817710,0.815192,0.824287
1043.000000,0.823776,0.822389,0.818093,0.815673,0.822733
1044.000000,0.824131,0.823266,0.818670,0.816162,0.825397
1045.000000,0.825419,0.822922,0.819247,0.816587,0.826729
1046.000000,0.825241,0.823010,0.820230,0.816961,0.827062
1047.000000,0.829237,0.825486,0.821945,0.817967,0.844267
1048.000000,0.832989,0.828383,0.822983,0.818829,0.841492
1049.000000,0.836719,0.830425,0.824487,0.820054,0.844045
1050.000000,0.839316,0.832368,0.825524,0.821538,0.839716
1051.000000,0.841447,0.833344,0.826701,0.822655,0.837718
1052.000000,0.841181,0.835209,0.828483,0.823543,0.842935
1053.000000,0.841270,0.837130,0.829759,0.824439,0.841936
1054.000000,0.842935,0.839827,0.831546,0.825722,0.852370
1055.000000,0.845377,0.842347,0.832634,0.826947,0.851926
1056.000000,0.847730,0.844589,0.833800,0.828349,0.849484
1057.000000,0.850616,0.845899,0.835692,0.829929,0.857365
1058.000000,0.853125,0.847197,0.837790,0.831054,0.854479
1059.000000,0.853768,0.848352,0.839388,0.832442,0.855589
1060.000000,0.856188,0.850783,0.841575,0.833944,0.864025
1061.000000,0.856721,0.852226,0.842785,0.835209,0.852148
1062.000000,0.855855,0.853236,0.844222,0.836734,0.853036
1063.000000,0.856255,0.854690,0.845910,0.838069,0.856477
1064.000000,0.855234,0.854501,0.847164,0.839198,0.850483
1065.000000,0.852525,0.854357,0.848352,0.839875,0.850483
1066.000000,0.853191,0.854956,0.849772,0.840852,0.855478
1067.000000,0.853613,0.854734,0.850316,0.842039,0.855145
1068.000000,0.852947,0.854601,0.850899,0.843394,0.853147
1069.000000,0.853768,0.854501,0.851426,0.844426,0.854590
1070.000000,0.853391,0.852958,0.851870,0.845369,0.848596
1071.000000,0.852658,0.852925,0.852575,0.846165,0.851815
1072.000000,0.850527,0.852070,0.852653,0.846838,0.844489
1073.000000,0.849795,0.851371,0.853030,0.847730,0.849484
1074.000000,0.847952,0.850860,0.852681,0.848396,0.845377
1075.000000,0.848929,0.851160,0.852758,0.849288,0.853480
1076.000000,0.849328,0.850993,0.852975,0.850179,0.853813
1077.000000,0.849661,0.850094,0.852414,0.850242,0.846154
1078.000000,0.848041,0.848918,0.851759,0.850239,0.841381
1079.000000,0.850505,0.849229,0.851865,0.850694,0.857698
1080.000000,0.852015,0.850472,0.851715,0.851404,0.861028
1081.000000,0.853413,0.851371,0.852148,0.852174,0.860806
1082.000000,0.856943,0.853302,0.852686,0.852869,0.863803
1083.000000,0.861805,0.854923,0.853147,0.853661,0.865690
1084.000000,0.864091,0.857298,0.854079,0.854220,0.869131
1085.000000,0.866667,0.859341,0.855250,0.854952,0.873904
1086.000000,0.870640,0.862027,0.856510,0.855992,0.880675
1087.000000,0.872794,0.864868,0.857481,0.856566,0.874570
1088.000000,0.877922,0.869863,0.859391,0.857794,0.891331
1089.000000,0.881097,0.872594,0.860911,0.858775,0.885004
1090.000000,0.884360,0.875513,0.862993,0.859648,0.890221
1091.000000,0.886824,0.878732,0.865052,0.861009,0.892996
1092.000000,0.892596,0.882695,0.867999,0.862689,0.903430
1093.000000,0.896170,0.887046,0.870985,0.864447,0.909202
1094.000000,0.902342,0.891719,0.874509,0.866626,0.915862
1095.000000,0.907404,0.895882,0.877611,0.868794,0.915529
1096.000000,0.912776,0.899800,0.880914,0.870940,0.919858
1097.000000,0.915307,0.903952,0.884410,0.872971,0.916084
1098.000000,0.916461,0.906316,0.888090,0.875032,0.914974
1099.000000,0.916728,0.909535,0.891064,0.877119,0.917194
1100.000000,0.917416,0.912410,0.893962,0.879465,0.918970
1101.000000,0.916106,0.914441,0.896587,0.881515,0.913309
1102.000000,0.915240,0.915274,0.898984,0.883757,0.911755
1103.000000,0.915085,0.915773,0.901410,0.885914,0.914197
1104.000000,0.915551,0.916139,0.903929,0.888386,0.919525
1105.000000,0.916439,0.916928,0.906405,0.890717,0.923410
1106.000000,0.918903,0.917505,0.908652,0.893111,0.925630
1107.000000,0.923366,0.919303,0.911627,0.896041,0.934066
1108.000000,0.927828,0.921456,0.913886,0.899212,0.936508
1109.000000,0.931602,0.923576,0.916556,0.901902,0.938395
1110.000000,0.935642,0.926041,0.919225,0.904655,0.943612
1111.000000,0.942014,0.930458,0.922450,0.907877,0.957487
1112.000000,0.946853,0.935109,0.925191,0.911026,0.958264
1113.000000,0.950139,0.938983,0.927378,0.913934,0.952936
1114.000000,0.952226,0.941914,0.929027,0.916591,0.948829
1115.000000,0.953735,0.944689,0.930808,0.919166,0.951160
1116.000000,0.951493,0.946753,0.932129,0.921353,0.946276
1117.000000,0.949983,0.948418,0.933861,0.923891,0.950716
1118.000000,0.949073,0.949606,0.935531,0.925793,0.948385
1119.000000,0.950627,0.951426,0.937501,0.928179,0.956599
1120.000000,0.951870,0.952803,0.939422,0.930418,0.957376
1121.000000,0.954046,0.952769,0.941614,0.932556,0.957154
1122.000000,0.954712,0.952348,0.943728,0.934244,0.954046
1123.000000,0.957620,0.953347,0.946165,0.936034,0.962926
1124.000000,0.959196,0.954912,0.948413,0.937655,0.964480
1125.000000,0.960861,0.956366,0.950527,0.939327,0.965701
1126.000000,0.962171,0.958109,0.952431,0.940789,0.963703
1127.000000,0.964058,0.959385,0.953902,0.942369,0.963481
1128.000000,0.964924,0.961272,0.955439,0.944111,0.967255
1129.000000,0.963770,0.961483,0.956455,0.945495,0.958708
1130.000000,0.963614,0.962238,0.957520,0.947027,0.964924
1131.000000,0.962882,0.962526,0.957648,0.948585,0.960040
1132.000000,0.963015,0.963536,0.957942,0.950331,0.964147
1133.000000,0.962882,0.963903,0.958625,0.952078,0.966589
1134.000000,0.964924,0.964347,0.959629,0.953724,0.968920
1135.000000,0.965768,0.964691,0.960528,0.955248,0.969142
1136.000000,0.969320,0.966101,0.962105,0.956987,0.977800
1137.000000,0.972516,0.967766,0.963575,0.958523,0.980131
1138.000000,0.974936,0.968909,0.965090,0.959929,0.978688
1139.000000,0.978688,0.971806,0.966644,0.961572,0.987679
1140.000000,0.981618,0.973693,0.967965,0.962911,0.983794
1141.000000,0.984593,0.976956,0.969741,0.964084,0.992674
1142.000000,0.987901,0.980209,0.971873,0.965364,0.996670
1143.000000,0.991386,0.983161,0.973532,0.966804,0.996115
1144.000000,0.993851,0.986269,0.975308,0.968509,1.000000
1145.000000,0.996226,0.988922,0.976807,0.969993,0.995671
1146.000000,0.996404,0.990498,0.978299,0.971569,0.993562
1147.000000,0.995671,0.991786,0.979776,0.972979,0.993007
1148.000000,0.993340,0.992363,0.980636,0.974181,0.984460
1149.000000,0.988833,0.991342,0.981574,0.974877,0.977467
1150.000000,0.985059,0.990643,0.982168,0.975524,0.976801
1151.000000,0.969075,0.982739,0.979848,0.974074,0.913642
1152.000000,0.950139,0.972905,0.976557,0.972217,0.898324
1153.000000,0.936419,0.964880,0.974020,0.970648,0.915862
1154.000000,0.923521,0.956177,0.971223,0.968931,0.912976
1155.000000,0.910756,0.947908,0.968415,0.967174,0.912976
1156.000000,0.910867,0.939971,0.965235,0.965523,0.914197
1157.000000,0.914885,0.932512,0.962149,0.964021,0.918415
1158.000000,0.915396,0.925907,0.959135,0.962393,0.918415
1159.000000,0.915906,0.919714,0.955528,0.960954,0.915529
1160.000000,0.914264,0.912510,0.951576,0.958948,0.904762
1161.000000,0.913775,0.912321,0.947530,0.957339,0.911755
1162.000000,0.914153,0.914519,0.943712,0.955877,0.920302
1163.000000,0.914175,0.914785,0.939832,0.954275,0.918526
1164.000000,0.916550,0.916228,0.936203,0.952892,0.927406
1165.000000,0.917927,0.916095,0.932001,0.950975,0.911644
1166.000000,0.917949,0.915862,0.927917,0.948777,0.911866
1167.000000,0.914796,0.914474,0.923493,0.946257,0.904540
1168.000000,0.913398,0.913786,0.919847,0.944019,0.911533
1169.000000,0.909091,0.912821,0.916267,0.941292,0.905872
1170.000000,0.906760,0.912343,0.912426,0.938499,0.899989
1171.000000,0.907293,0.912621,0.912471,0.935894,0.914530
1172.000000,0.908114,0.911455,0.912987,0.932960,0.908647
1173.000000,0.907848,0.910623,0.912704,0.930096,0.910201
1174.000000,0.910867,0.909979,0.913104,0.927461,0.920968
1175.000000,0.916484,0.911622,0.913858,0.925208,0.928072
1176.000000,0.919791,0.913542,0.914702,0.923125,0.931069
1177.000000,0.922877,0.915496,0.914985,0.920827,0.924076
1178.000000,0.924764,0.916306,0.915046,0.918667,0.919636
1179.000000,0.926185,0.918526,0.915673,0.917020,0.928072
1180.000000,0.926651,0.921567,0.916955,0.915473,0.930403
1181.000000,0.929404,0.924598,0.918609,0.916513,0.944833
1182.000000,0.933733,0.928305,0.919880,0.918093,0.945721
1183.000000,0.937396,0.931080,0.920851,0.918829,0.937951
1184.000000,0.940193,0.933189,0.921584,0.919799,0.942058
1185.000000,0.942169,0.934410,0.923016,0.920709,0.940282
1186.000000,0.942879,0.936142,0.924842,0.921849,0.948385
1187.000000,0.943679,0.938706,0.927101,0.922892,0.949717
1188.000000,0.947275,0.942335,0.929321,0.924143,0.955933
1189.000000,0.950117,0.945155,0.931840,0.925500,0.956266
1190.000000,0.952359,0.947264,0.934416,0.927058,0.951493
1191.000000,0.955289,0.949084,0.936841,0.928768,0.963037
1192.000000,0.957931,0.950805,0.939555,0.930188,0.962926
1193.000000,0.958863,0.953069,0.942075,0.931591,0.960595
1194.000000,0.960928,0.955522,0.944356,0.932897,0.966589
1195.000000,0.962238,0.957298,0.945854,0.934443,0.958042
1196.000000,0.964724,0.960007,0.948074,0.936563,0.975469
1197.000000,0.968454,0.963192,0.950949,0.939131,0.981574
1198.000000,0.972006,0.965435,0.953885,0.941359,0.978355
1199.000000,0.974359,0.967643,0.956399,0.943775,0.978355
1200.000000,0.979398,0.970818,0.959041,0.946550,0.983239
1201.000000,0.980686,0.972705,0.960895,0.948796,0.981907
1202.000000,0.980775,0.974614,0.962710,0.951241,0.982018
1203.000000,0.981752,0.976879,0.964974,0.953676,0.983239
1204.000000,0.982529,0.978444,0.966983,0.955718,0.982240
1205.000000,0.983106,0.981252,0.969275,0.957653,0.986125
1206.000000,0.984171,0.982429,0.971218,0.959526,0.987235
1207.000000,0.985304,0.983039,0.973116,0.961646,0.987679
1208.000000,0.985348,0.983550,0.974492,0.963773,0.983461
1209.000000,0.985681,0.984105,0.975874,0.965634,0.983905
1210.000000,0.986480,0.984793,0.977806,0.967625,0.990121
1211.000000,0.986680,0.985426,0.979065,0.969072,0.988234
1212.000000,0.986991,0.986147,0.980381,0.970522,0.989233
1213.000000,0.986747,0.986047,0.981463,0.971998,0.982240
1214.000000,0.987413,0.986547,0.982495,0.973504,0.987235
1215.000000,0.984593,0.985537,0.983394,0.974696,0.976024
1216.000000,0.978888,0.982784,0.982606,0.975073,0.959707
1217.000000,0.974337,0.980664,0.981851,0.975632,0.966478
1218.000000,0.971939,0.979343,0.981446,0.976109,0.970252
1219.000000,0.966744,0.977078,0.980592,0.976276,0.961261
1220.000000,0.964547,0.974570,0.979681,0.976727,0.965035
1221.000000,0.963192,0.971040,0.978233,0.976390,0.952936
1222.000000,0.960195,0.967266,0.976707,0.976009,0.951493
1223.000000,0.956466,0.964202,0.975125,0.975709,0.951604
1224.000000,0.952381,0.959563,0.973055,0.974851,0.940837
1225.000000,0.947874,0.956210,0.970874,0.974333,0.942502
1226.000000,0.947297,0.955245,0.969014,0.973486,0.950050
1227.000000,0.947053,0.953624,0.967144,0.972442,0.950272
1228.000000,0.946498,0.951482,0.965412,0.971458,0.948829
1229.000000,0.949495,0.950938,0.964008,0.970707,0.955822
1230.000000,0.951138,0.949506,0.962038,0.969623,0.950716
1231.000000,0.950871,0.949084,0.960062,0.968517,0.948718
1232.000000,0.952936,0.949994,0.958630,0.967803,0.960595
1233.000000,0.953757,0.950128,0.957165,0.966792,0.952936
1234.000000,0.954068,0.951782,0.955672,0.965964,0.957376
1235.000000,0.956488,0.953813,0.955012,0.965187,0.962815
1236.000000,0.959685,0.955278,0.955261,0.964436,0.964702
1237.000000,0.961949,0.957443,0.955533,0.963910,0.971917
1238.000000,0.967632,0.960695,0.956088,0.963840,0.981352
1239.000000,0.970629,0.962349,0.956643,0.963455,0.972361
1240.000000,0.973560,0.965024,0.957265,0.963033,0.977467
1241.000000,0.978200,0.968942,0.959013,0.963022,0.987901
1242.000000,0.979554,0.970751,0.960373,0.962671,0.978688
1243.000000,0.979487,0.973560,0.961844,0.962630,0.981019
1244.000000,0.980153,0.975391,0.963586,0.962245,0.975691
